"sep=	"
Shimmer9507_Timestamp_FormattedUnix_CAL	Shimmer9507_ECG_EMG_Status1_CAL	Shimmer9507_EMG_CH1_16BIT_CAL	Shimmer9507_EMG_CH2_16BIT_CAL	
yyyy/mm/dd hh:mm:ss.000	no units	mV	mV	
2015/06/26 12:36:00.662	128.0	-1.97561571092868	4.15125481938129	
2015/06/26 12:36:00.664	128.0	-1.97561571092868	4.15125481938129	
2015/06/26 12:36:00.666	128.0	-1.94792016357921	4.13894568722597	
2015/06/26 12:36:00.668	128.0	-1.94792016357921	4.13894568722597	
2015/06/26 12:36:00.670	128.0	-1.92022461622974	4.13279112114831	
2015/06/26 12:36:00.672	128.0	-1.92022461622974	4.13279112114831	
2015/06/26 12:36:00.674	128.0	-1.91407005015208	4.13894568722597	
2015/06/26 12:36:00.676	128.0	-1.91407005015208	4.13894568722597	
2015/06/26 12:36:00.678	128.0	-1.92022461622974	4.12355927203182	
2015/06/26 12:36:00.680	128.0	-1.92022461622974	4.12355927203182	
2015/06/26 12:36:00.682	128.0	-1.93253374838506	4.10201829076001	
2015/06/26 12:36:00.684	128.0	-1.93253374838506	4.10201829076001	
2015/06/26 12:36:00.686	128.0	-1.93253374838506	4.10201829076001	
2015/06/26 12:36:00.688	128.0	-1.93253374838506	4.10201829076001	
2015/06/26 12:36:00.690	128.0	-1.94176559750155	4.1112501398765	
2015/06/26 12:36:00.692	128.0	-1.94176559750155	4.1112501398765	
2015/06/26 12:36:00.694	128.0	-1.94792016357921	4.10817285683767	
2015/06/26 12:36:00.696	128.0	-1.94792016357921	4.10817285683767	
2015/06/26 12:36:00.698	128.0	-1.94176559750155	4.08355459252703	
2015/06/26 12:36:00.700	128.0	-1.94176559750155	4.08355459252703	
2015/06/26 12:36:00.702	128.0	-1.94484288054038	4.09894100772118	
2015/06/26 12:36:00.703	128.0	-1.94484288054038	4.09894100772118	
2015/06/26 12:36:00.705	128.0	-1.96022929573453	4.08663187556586	
2015/06/26 12:36:00.707	128.0	-1.96022929573453	4.08663187556586	
2015/06/26 12:36:00.709	128.0	-1.96022929573453	4.07740002644938	
2015/06/26 12:36:00.711	128.0	-1.96022929573453	4.07740002644938	
2015/06/26 12:36:00.713	128.0	-1.97869299396751	4.08047730948821	
2015/06/26 12:36:00.715	128.0	-1.97869299396751	4.08047730948821	
2015/06/26 12:36:00.717	128.0	-1.97869299396751	4.08663187556586	
2015/06/26 12:36:00.719	128.0	-1.97869299396751	4.08663187556586	
2015/06/26 12:36:00.721	128.0	-1.97869299396751	4.08663187556586	
2015/06/26 12:36:00.723	128.0	-1.96330657877336	4.09894100772118	
2015/06/26 12:36:00.725	128.0	-1.96330657877336	4.09894100772118	
2015/06/26 12:36:00.727	128.0	-1.96946114485102	4.07740002644938	
2015/06/26 12:36:00.729	128.0	-1.96946114485102	4.07740002644938	
2015/06/26 12:36:00.731	128.0	-1.96022929573453	4.07124546037172	
2015/06/26 12:36:00.733	128.0	-1.96022929573453	4.07124546037172	
2015/06/26 12:36:00.735	128.0	-1.95099744661804	4.07740002644938	
2015/06/26 12:36:00.737	128.0	-1.95099744661804	4.07740002644938	
2015/06/26 12:36:00.739	128.0	-1.94792016357921	4.08047730948821	
2015/06/26 12:36:00.741	128.0	-1.94792016357921	4.08047730948821	
2015/06/26 12:36:00.743	128.0	-1.92945646534623	4.08047730948821	
2015/06/26 12:36:00.744	128.0	-1.92945646534623	4.08047730948821	
2015/06/26 12:36:00.746	128.0	-1.92945646534623	4.08355459252703	
2015/06/26 12:36:00.748	128.0	-1.92945646534623	4.08355459252703	
2015/06/26 12:36:00.750	128.0	-1.94176559750155	4.07432274341055	
2015/06/26 12:36:00.752	128.0	-1.94176559750155	4.07432274341055	
2015/06/26 12:36:00.754	128.0	-1.95407472965687	4.07124546037172	
2015/06/26 12:36:00.756	128.0	-1.95407472965687	4.07124546037172	
2015/06/26 12:36:00.758	128.0	-1.96330657877336	4.08355459252703	
2015/06/26 12:36:00.760	128.0	-1.96330657877336	4.08355459252703	
2015/06/26 12:36:00.762	128.0	-1.96330657877336	4.08355459252703	
2015/06/26 12:36:00.764	128.0	-1.96330657877336	4.08355459252703	
2015/06/26 12:36:00.766	128.0	-1.96330657877336	4.08355459252703	
2015/06/26 12:36:00.768	128.0	-1.96330657877336	4.08355459252703	
2015/06/26 12:36:00.770	128.0	-1.9571520126957	4.07740002644938	
2015/06/26 12:36:00.772	128.0	-1.9571520126957	4.07740002644938	
2015/06/26 12:36:00.774	128.0	-1.9571520126957	4.06201361125523	
2015/06/26 12:36:00.776	128.0	-1.9571520126957	4.06201361125523	
2015/06/26 12:36:00.778	128.0	-1.96946114485102	4.06201361125523	
2015/06/26 12:36:00.780	128.0	-1.96946114485102	4.06201361125523	
2015/06/26 12:36:00.782	128.0	-1.98177027700634	4.07740002644938	
2015/06/26 12:36:00.784	128.0	-1.98177027700634	4.07740002644938	
2015/06/26 12:36:00.785	128.0	-1.96946114485102	4.07432274341055	
2015/06/26 12:36:00.787	128.0	-1.96946114485102	4.07432274341055	
2015/06/26 12:36:00.789	128.0	-1.95407472965687	4.06509089429406	
2015/06/26 12:36:00.791	128.0	-1.95407472965687	4.06509089429406	
2015/06/26 12:36:00.793	128.0	-1.95407472965687	4.07124546037172	
2015/06/26 12:36:00.795	128.0	-1.95407472965687	4.07124546037172	
2015/06/26 12:36:00.797	128.0	-1.95407472965687	4.07124546037172	
2015/06/26 12:36:00.799	128.0	-1.96638386181219	4.07740002644938	
2015/06/26 12:36:00.801	128.0	-1.96638386181219	4.07740002644938	
2015/06/26 12:36:00.803	128.0	-1.96946114485102	4.07432274341055	
2015/06/26 12:36:00.805	128.0	-1.96946114485102	4.07432274341055	
2015/06/26 12:36:00.807	128.0	-1.97253842788985	4.07124546037172	
2015/06/26 12:36:00.809	128.0	-1.97253842788985	4.07124546037172	
2015/06/26 12:36:00.811	128.0	-1.98484756004517	4.06816817733289	
2015/06/26 12:36:00.813	128.0	-1.98484756004517	4.06816817733289	
2015/06/26 12:36:00.815	128.0	-1.97253842788985	4.06816817733289	
2015/06/26 12:36:00.817	128.0	-1.97253842788985	4.06816817733289	
2015/06/26 12:36:00.819	128.0	-1.97561571092868	4.07432274341055	
2015/06/26 12:36:00.821	128.0	-1.97561571092868	4.07432274341055	
2015/06/26 12:36:00.823	128.0	-1.98484756004517	4.07740002644938	
2015/06/26 12:36:00.825	128.0	-1.98484756004517	4.07740002644938	
2015/06/26 12:36:00.827	128.0	-1.97253842788985	4.07124546037172	
2015/06/26 12:36:00.828	128.0	-1.97253842788985	4.07124546037172	
2015/06/26 12:36:00.830	128.0	-1.98177027700634	4.06816817733289	
2015/06/26 12:36:00.832	128.0	-1.98177027700634	4.06816817733289	
2015/06/26 12:36:00.834	128.0	-1.97561571092868	4.06816817733289	
2015/06/26 12:36:00.836	128.0	-1.97561571092868	4.06816817733289	
2015/06/26 12:36:00.838	128.0	-1.97561571092868	4.06509089429406	
2015/06/26 12:36:00.840	128.0	-1.97561571092868	4.06509089429406	
2015/06/26 12:36:00.842	128.0	-1.97253842788985	4.06816817733289	
2015/06/26 12:36:00.844	128.0	-1.97253842788985	4.06816817733289	
2015/06/26 12:36:00.846	128.0	-1.96022929573453	4.08047730948821	
2015/06/26 12:36:00.848	128.0	-1.96022929573453	4.08047730948821	
2015/06/26 12:36:00.850	128.0	-1.95407472965687	4.09894100772118	
2015/06/26 12:36:00.852	128.0	-1.95407472965687	4.09894100772118	
2015/06/26 12:36:00.854	128.0	-1.96022929573453	4.07124546037172	
2015/06/26 12:36:00.856	128.0	-1.96022929573453	4.07124546037172	
2015/06/26 12:36:00.858	128.0	-1.97253842788985	4.06509089429406	
2015/06/26 12:36:00.860	128.0	-1.97253842788985	4.06509089429406	
2015/06/26 12:36:00.862	128.0	-1.98484756004517	4.06509089429406	
2015/06/26 12:36:00.864	128.0	-1.98484756004517	4.06509089429406	
2015/06/26 12:36:00.866	128.0	-1.99407940916166	4.07740002644938	
2015/06/26 12:36:00.868	128.0	-1.99407940916166	4.07740002644938	
2015/06/26 12:36:00.869	128.0	-1.987924843084	4.06816817733289	
2015/06/26 12:36:00.871	128.0	-1.987924843084	4.06816817733289	
2015/06/26 12:36:00.873	128.0	-1.97253842788985	4.07432274341055	
2015/06/26 12:36:00.875	128.0	-1.97253842788985	4.07432274341055	
2015/06/26 12:36:00.877	128.0	-1.97253842788985	4.07432274341055	
2015/06/26 12:36:00.879	128.0	-1.96638386181219	4.06201361125523	
2015/06/26 12:36:00.881	128.0	-1.96638386181219	4.06201361125523	
2015/06/26 12:36:00.883	128.0	-1.97253842788985	4.06816817733289	
2015/06/26 12:36:00.885	128.0	-1.97253842788985	4.06816817733289	
2015/06/26 12:36:00.887	128.0	-1.97869299396751	4.06816817733289	
2015/06/26 12:36:00.889	128.0	-1.97869299396751	4.06816817733289	
2015/06/26 12:36:00.891	128.0	-1.98484756004517	4.06509089429406	
2015/06/26 12:36:00.893	128.0	-1.98484756004517	4.06509089429406	
2015/06/26 12:36:00.895	128.0	-1.99100212612283	4.05585904517757	
2015/06/26 12:36:00.897	128.0	-1.99100212612283	4.05585904517757	
2015/06/26 12:36:00.899	128.0	-1.99407940916166	4.07124546037172	
2015/06/26 12:36:00.901	128.0	-1.99407940916166	4.07124546037172	
2015/06/26 12:36:00.903	128.0	-1.99407940916166	4.08355459252703	
2015/06/26 12:36:00.905	128.0	-1.99407940916166	4.08355459252703	
2015/06/26 12:36:00.907	128.0	-1.98484756004517	4.07124546037172	
2015/06/26 12:36:00.909	128.0	-1.98484756004517	4.07124546037172	
2015/06/26 12:36:00.910	128.0	-1.97561571092868	4.07124546037172	
2015/06/26 12:36:00.912	128.0	-1.97561571092868	4.07124546037172	
2015/06/26 12:36:00.914	128.0	-1.987924843084	4.07432274341055	
2015/06/26 12:36:00.916	128.0	-1.987924843084	4.07432274341055	
2015/06/26 12:36:00.918	128.0	-2.0094658243558	4.07432274341055	
2015/06/26 12:36:00.920	128.0	-2.0094658243558	4.07432274341055	
2015/06/26 12:36:00.922	128.0	-2.00638854131698	4.08355459252703	
2015/06/26 12:36:00.924	128.0	-2.00638854131698	4.08355459252703	
2015/06/26 12:36:00.926	128.0	-1.98484756004517	4.07432274341055	
2015/06/26 12:36:00.928	128.0	-1.98484756004517	4.07432274341055	
2015/06/26 12:36:00.930	128.0	-1.97561571092868	4.05278176213874	
2015/06/26 12:36:00.932	128.0	-1.97561571092868	4.05278176213874	
2015/06/26 12:36:00.934	128.0	-1.97869299396751	4.0589363282164	
2015/06/26 12:36:00.936	128.0	-1.97869299396751	4.0589363282164	
2015/06/26 12:36:00.938	128.0	-1.97253842788985	4.06509089429406	
2015/06/26 12:36:00.940	128.0	-1.97253842788985	4.06509089429406	
2015/06/26 12:36:00.942	128.0	-1.97253842788985	4.07124546037172	
2015/06/26 12:36:00.944	128.0	-1.97253842788985	4.07124546037172	
2015/06/26 12:36:00.946	128.0	-1.97561571092868	4.07740002644938	
2015/06/26 12:36:00.948	128.0	-1.97561571092868	4.07740002644938	
2015/06/26 12:36:00.950	128.0	-1.97561571092868	4.07124546037172	
2015/06/26 12:36:00.952	128.0	-1.97561571092868	4.07124546037172	
2015/06/26 12:36:00.953	128.0	-1.97561571092868	4.07124546037172	
2015/06/26 12:36:00.955	128.0	-1.97869299396751	4.0589363282164	
2015/06/26 12:36:00.957	128.0	-1.97869299396751	4.0589363282164	
2015/06/26 12:36:00.959	128.0	-1.99100212612283	4.07124546037172	
2015/06/26 12:36:00.961	128.0	-1.99100212612283	4.07124546037172	
2015/06/26 12:36:00.963	128.0	-2.00023397523932	4.07124546037172	
2015/06/26 12:36:00.965	128.0	-2.00023397523932	4.07124546037172	
2015/06/26 12:36:00.967	128.0	-1.99100212612283	4.08970915860469	
2015/06/26 12:36:00.969	128.0	-1.99100212612283	4.08970915860469	
2015/06/26 12:36:00.971	128.0	-1.97561571092868	4.09278644164352	
2015/06/26 12:36:00.973	128.0	-1.97561571092868	4.09278644164352	
2015/06/26 12:36:00.975	128.0	-1.96946114485102	4.05278176213874	
2015/06/26 12:36:00.977	128.0	-1.96946114485102	4.05278176213874	
2015/06/26 12:36:00.979	128.0	-1.97869299396751	4.06509089429406	
2015/06/26 12:36:00.981	128.0	-1.97869299396751	4.06509089429406	
2015/06/26 12:36:00.983	128.0	-1.987924843084	4.07124546037172	
2015/06/26 12:36:00.985	128.0	-1.987924843084	4.07124546037172	
2015/06/26 12:36:00.987	128.0	-2.0094658243558	4.07124546037172	
2015/06/26 12:36:00.989	128.0	-2.0094658243558	4.07124546037172	
2015/06/26 12:36:00.991	128.0	-2.01869767347229	4.06816817733289	
2015/06/26 12:36:00.993	128.0	-2.01869767347229	4.06816817733289	
2015/06/26 12:36:00.994	128.0	-1.987924843084	4.06201361125523	
2015/06/26 12:36:00.996	128.0	-1.987924843084	4.06201361125523	
2015/06/26 12:36:00.998	128.0	-1.96022929573453	4.06816817733289	
2015/06/26 12:36:01.000	128.0	-1.96022929573453	4.06816817733289	
2015/06/26 12:36:01.002	128.0	-1.96330657877336	4.07432274341055	
2015/06/26 12:36:01.004	128.0	-1.96330657877336	4.07432274341055	
2015/06/26 12:36:01.006	128.0	-1.96946114485102	4.08047730948821	
2015/06/26 12:36:01.008	128.0	-1.96946114485102	4.08047730948821	
2015/06/26 12:36:01.010	128.0	-1.96946114485102	4.07124546037172	
2015/06/26 12:36:01.012	128.0	-1.96946114485102	4.07124546037172	
2015/06/26 12:36:01.014	128.0	-1.97561571092868	4.05585904517757	
2015/06/26 12:36:01.016	128.0	-1.97561571092868	4.05585904517757	
2015/06/26 12:36:01.018	128.0	-1.98177027700634	4.0589363282164	
2015/06/26 12:36:01.020	128.0	-1.98177027700634	4.0589363282164	
2015/06/26 12:36:01.022	128.0	-2.00023397523932	4.07124546037172	
2015/06/26 12:36:01.024	128.0	-2.00023397523932	4.07124546037172	
2015/06/26 12:36:01.026	128.0	-1.99100212612283	4.06816817733289	
2015/06/26 12:36:01.028	128.0	-1.99100212612283	4.06816817733289	
2015/06/26 12:36:01.030	128.0	-1.99100212612283	4.06816817733289	
2015/06/26 12:36:01.032	128.0	-1.96638386181219	4.06509089429406	
2015/06/26 12:36:01.034	128.0	-1.96638386181219	4.06509089429406	
2015/06/26 12:36:01.035	128.0	-1.96638386181219	4.07432274341055	
2015/06/26 12:36:01.037	128.0	-1.96638386181219	4.07432274341055	
2015/06/26 12:36:01.039	128.0	-1.97253842788985	4.07740002644938	
2015/06/26 12:36:01.041	128.0	-1.97253842788985	4.07740002644938	
2015/06/26 12:36:01.043	128.0	-1.97869299396751	4.08970915860469	
2015/06/26 12:36:01.045	128.0	-1.97869299396751	4.08970915860469	
2015/06/26 12:36:01.047	128.0	-1.98177027700634	4.07432274341055	
2015/06/26 12:36:01.049	128.0	-1.98177027700634	4.07432274341055	
2015/06/26 12:36:01.051	128.0	-1.98484756004517	4.06201361125523	
2015/06/26 12:36:01.053	128.0	-1.98484756004517	4.06201361125523	
2015/06/26 12:36:01.055	128.0	-1.987924843084	4.07124546037172	
2015/06/26 12:36:01.057	128.0	-1.987924843084	4.07124546037172	
2015/06/26 12:36:01.059	128.0	-1.97869299396751	4.07432274341055	
2015/06/26 12:36:01.061	128.0	-1.97869299396751	4.07432274341055	
2015/06/26 12:36:01.063	128.0	-1.96946114485102	4.07432274341055	
2015/06/26 12:36:01.065	128.0	-1.96946114485102	4.07432274341055	
2015/06/26 12:36:01.067	128.0	-1.97253842788985	4.07432274341055	
2015/06/26 12:36:01.069	128.0	-1.97253842788985	4.07432274341055	
2015/06/26 12:36:01.071	128.0	-1.97561571092868	4.07124546037172	
2015/06/26 12:36:01.073	128.0	-1.97561571092868	4.07124546037172	
2015/06/26 12:36:01.075	128.0	-1.97869299396751	4.07432274341055	
2015/06/26 12:36:01.077	128.0	-1.97869299396751	4.07432274341055	
2015/06/26 12:36:01.078	128.0	-1.987924843084	4.07124546037172	
2015/06/26 12:36:01.080	128.0	-1.987924843084	4.07124546037172	
2015/06/26 12:36:01.082	128.0	-1.99100212612283	4.06816817733289	
2015/06/26 12:36:01.084	128.0	-1.99100212612283	4.06816817733289	
2015/06/26 12:36:01.086	128.0	-1.99407940916166	4.06509089429406	
2015/06/26 12:36:01.088	128.0	-1.99407940916166	4.06509089429406	
2015/06/26 12:36:01.090	128.0	-1.987924843084	4.06816817733289	
2015/06/26 12:36:01.092	128.0	-1.987924843084	4.06816817733289	
2015/06/26 12:36:01.094	128.0	-1.97869299396751	4.08970915860469	
2015/06/26 12:36:01.096	128.0	-1.97869299396751	4.08970915860469	
2015/06/26 12:36:01.098	128.0	-1.97869299396751	4.07740002644938	
2015/06/26 12:36:01.100	128.0	-1.97869299396751	4.07740002644938	
2015/06/26 12:36:01.102	128.0	-1.987924843084	4.06816817733289	
2015/06/26 12:36:01.104	128.0	-1.987924843084	4.06816817733289	
2015/06/26 12:36:01.106	128.0	-1.987924843084	4.06816817733289	
2015/06/26 12:36:01.108	128.0	-2.00331125827815	4.0589363282164	
2015/06/26 12:36:01.110	128.0	-2.00331125827815	4.0589363282164	
2015/06/26 12:36:01.112	128.0	-2.00331125827815	4.07740002644938	
2015/06/26 12:36:01.114	128.0	-2.00331125827815	4.07740002644938	
2015/06/26 12:36:01.116	128.0	-1.99100212612283	4.06816817733289	
2015/06/26 12:36:01.118	128.0	-1.99100212612283	4.06816817733289	
2015/06/26 12:36:01.119	128.0	-1.97561571092868	4.06201361125523	
2015/06/26 12:36:01.121	128.0	-1.97561571092868	4.06201361125523	
2015/06/26 12:36:01.123	128.0	-1.96638386181219	4.07124546037172	
2015/06/26 12:36:01.125	128.0	-1.96638386181219	4.07124546037172	
2015/06/26 12:36:01.127	128.0	-1.96638386181219	4.06816817733289	
2015/06/26 12:36:01.129	128.0	-1.96638386181219	4.06816817733289	
2015/06/26 12:36:01.131	128.0	-1.97869299396751	4.06509089429406	
2015/06/26 12:36:01.133	128.0	-1.97869299396751	4.06509089429406	
2015/06/26 12:36:01.135	128.0	-1.987924843084	4.06816817733289	
2015/06/26 12:36:01.137	128.0	-1.987924843084	4.06816817733289	
2015/06/26 12:36:01.139	128.0	-1.97869299396751	4.07124546037172	
2015/06/26 12:36:01.141	128.0	-1.97869299396751	4.07124546037172	
2015/06/26 12:36:01.143	128.0	-1.97561571092868	4.07432274341055	
2015/06/26 12:36:01.145	128.0	-1.97561571092868	4.07432274341055	
2015/06/26 12:36:01.147	128.0	-1.97253842788985	4.07432274341055	
2015/06/26 12:36:01.149	128.0	-1.97253842788985	4.07432274341055	
2015/06/26 12:36:01.151	128.0	-1.97561571092868	4.07432274341055	
2015/06/26 12:36:01.153	128.0	-1.97561571092868	4.07432274341055	
2015/06/26 12:36:01.155	128.0	-1.97869299396751	4.08355459252703	
2015/06/26 12:36:01.157	128.0	-1.97869299396751	4.08355459252703	
2015/06/26 12:36:01.159	128.0	-1.98177027700634	4.07740002644938	
2015/06/26 12:36:01.160	128.0	-1.98177027700634	4.07740002644938	
2015/06/26 12:36:01.162	128.0	-1.98484756004517	4.07432274341055	
2015/06/26 12:36:01.164	128.0	-1.98484756004517	4.07432274341055	
2015/06/26 12:36:01.166	128.0	-1.987924843084	4.06509089429406	
2015/06/26 12:36:01.168	128.0	-1.987924843084	4.06509089429406	
2015/06/26 12:36:01.170	128.0	-1.97869299396751	4.06201361125523	
2015/06/26 12:36:01.172	128.0	-1.97869299396751	4.06201361125523	
2015/06/26 12:36:01.174	128.0	-1.97561571092868	4.07124546037172	
2015/06/26 12:36:01.176	128.0	-1.97561571092868	4.07124546037172	
2015/06/26 12:36:01.178	128.0	-1.99407940916166	4.08047730948821	
2015/06/26 12:36:01.180	128.0	-1.99407940916166	4.08047730948821	
2015/06/26 12:36:01.182	128.0	-2.00331125827815	4.07432274341055	
2015/06/26 12:36:01.184	128.0	-2.00331125827815	4.07432274341055	
2015/06/26 12:36:01.186	128.0	-2.00331125827815	4.07432274341055	
2015/06/26 12:36:01.188	128.0	-1.99407940916166	4.06816817733289	
2015/06/26 12:36:01.190	128.0	-1.99407940916166	4.06816817733289	
2015/06/26 12:36:01.192	128.0	-1.98484756004517	4.05585904517757	
2015/06/26 12:36:01.194	128.0	-1.98484756004517	4.05585904517757	
2015/06/26 12:36:01.196	128.0	-1.97869299396751	4.05585904517757	
2015/06/26 12:36:01.198	128.0	-1.97869299396751	4.05585904517757	
2015/06/26 12:36:01.200	128.0	-1.97561571092868	4.07432274341055	
2015/06/26 12:36:01.202	128.0	-1.97561571092868	4.07432274341055	
2015/06/26 12:36:01.203	128.0	-1.97869299396751	4.08047730948821	
2015/06/26 12:36:01.205	128.0	-1.97869299396751	4.08047730948821	
2015/06/26 12:36:01.207	128.0	-1.99100212612283	4.07124546037172	
2015/06/26 12:36:01.209	128.0	-1.99100212612283	4.07124546037172	
2015/06/26 12:36:01.211	128.0	-2.00331125827815	4.06509089429406	
2015/06/26 12:36:01.213	128.0	-2.00331125827815	4.06509089429406	
2015/06/26 12:36:01.215	128.0	-1.987924843084	4.06509089429406	
2015/06/26 12:36:01.217	128.0	-1.987924843084	4.06509089429406	
2015/06/26 12:36:01.219	128.0	-1.98177027700634	4.07124546037172	
2015/06/26 12:36:01.221	128.0	-1.98177027700634	4.07124546037172	
2015/06/26 12:36:01.223	128.0	-1.98484756004517	4.07740002644938	
2015/06/26 12:36:01.225	128.0	-1.98484756004517	4.07740002644938	
2015/06/26 12:36:01.227	128.0	-1.98484756004517	4.07432274341055	
2015/06/26 12:36:01.229	128.0	-1.98484756004517	4.07432274341055	
2015/06/26 12:36:01.231	128.0	-1.98484756004517	4.07432274341055	
2015/06/26 12:36:01.233	128.0	-1.98484756004517	4.07432274341055	
2015/06/26 12:36:01.235	128.0	-1.98484756004517	4.06509089429406	
2015/06/26 12:36:01.237	128.0	-1.98484756004517	4.06509089429406	
2015/06/26 12:36:01.239	128.0	-1.98484756004517	4.06816817733289	
2015/06/26 12:36:01.241	128.0	-1.98484756004517	4.06816817733289	
2015/06/26 12:36:01.243	128.0	-1.98484756004517	4.07432274341055	
2015/06/26 12:36:01.244	128.0	-1.98484756004517	4.07432274341055	
2015/06/26 12:36:01.246	128.0	-1.98484756004517	4.06816817733289	
2015/06/26 12:36:01.248	128.0	-1.98484756004517	4.06816817733289	
2015/06/26 12:36:01.250	128.0	-1.98484756004517	4.06201361125523	
2015/06/26 12:36:01.252	128.0	-1.98484756004517	4.06201361125523	
2015/06/26 12:36:01.254	128.0	-1.99407940916166	4.07740002644938	
2015/06/26 12:36:01.256	128.0	-1.99407940916166	4.07740002644938	
2015/06/26 12:36:01.258	128.0	-2.00638854131698	4.08355459252703	
2015/06/26 12:36:01.260	128.0	-2.00638854131698	4.08355459252703	
2015/06/26 12:36:01.262	128.0	-2.00638854131698	4.08355459252703	
2015/06/26 12:36:01.264	128.0	-2.00331125827815	4.07740002644938	
2015/06/26 12:36:01.266	128.0	-2.00331125827815	4.07740002644938	
2015/06/26 12:36:01.268	128.0	-1.99100212612283	4.0589363282164	
2015/06/26 12:36:01.270	128.0	-1.99100212612283	4.0589363282164	
2015/06/26 12:36:01.272	128.0	-1.99100212612283	4.06201361125523	
2015/06/26 12:36:01.274	128.0	-1.99100212612283	4.06201361125523	
2015/06/26 12:36:01.276	128.0	-1.987924843084	4.07432274341055	
2015/06/26 12:36:01.278	128.0	-1.987924843084	4.07432274341055	
2015/06/26 12:36:01.280	128.0	-1.98484756004517	4.07740002644938	
2015/06/26 12:36:01.282	128.0	-1.98484756004517	4.07740002644938	
2015/06/26 12:36:01.284	128.0	-1.99715669220049	4.06509089429406	
2015/06/26 12:36:01.285	128.0	-1.99715669220049	4.06509089429406	
2015/06/26 12:36:01.287	128.0	-2.00331125827815	4.06816817733289	
2015/06/26 12:36:01.289	128.0	-2.00331125827815	4.06816817733289	
2015/06/26 12:36:01.291	128.0	-2.01254310739463	4.07740002644938	
2015/06/26 12:36:01.293	128.0	-2.01254310739463	4.07740002644938	
2015/06/26 12:36:01.295	128.0	-2.01254310739463	4.07124546037172	
2015/06/26 12:36:01.297	128.0	-2.01254310739463	4.07124546037172	
2015/06/26 12:36:01.299	128.0	-1.99407940916166	4.07740002644938	
2015/06/26 12:36:01.301	128.0	-1.99407940916166	4.07740002644938	
2015/06/26 12:36:01.303	128.0	-1.99715669220049	4.06816817733289	
2015/06/26 12:36:01.305	128.0	-1.99715669220049	4.06816817733289	
2015/06/26 12:36:01.307	128.0	-2.02177495651112	4.06509089429406	
2015/06/26 12:36:01.309	128.0	-2.02177495651112	4.06509089429406	
2015/06/26 12:36:01.311	128.0	-2.02792952258878	4.06201361125523	
2015/06/26 12:36:01.313	128.0	-2.02792952258878	4.06201361125523	
2015/06/26 12:36:01.315	128.0	-2.00023397523932	4.06816817733289	
2015/06/26 12:36:01.317	128.0	-2.00023397523932	4.06816817733289	
2015/06/26 12:36:01.319	128.0	-1.987924843084	4.07124546037172	
2015/06/26 12:36:01.321	128.0	-1.987924843084	4.07124546037172	
2015/06/26 12:36:01.323	128.0	-1.99407940916166	4.07432274341055	
2015/06/26 12:36:01.325	128.0	-1.99407940916166	4.07432274341055	
2015/06/26 12:36:01.327	128.0	-1.99100212612283	4.07432274341055	
2015/06/26 12:36:01.328	128.0	-1.99100212612283	4.07432274341055	
2015/06/26 12:36:01.330	128.0	-1.987924843084	4.06201361125523	
2015/06/26 12:36:01.332	128.0	-1.987924843084	4.06201361125523	
2015/06/26 12:36:01.334	128.0	-1.99715669220049	4.06509089429406	
2015/06/26 12:36:01.336	128.0	-1.99715669220049	4.06509089429406	
2015/06/26 12:36:01.338	128.0	-1.99715669220049	4.06509089429406	
2015/06/26 12:36:01.340	128.0	-2.00638854131698	4.06816817733289	
2015/06/26 12:36:01.342	128.0	-2.00638854131698	4.06816817733289	
2015/06/26 12:36:01.344	128.0	-2.0094658243558	4.07124546037172	
2015/06/26 12:36:01.346	128.0	-2.0094658243558	4.07124546037172	
2015/06/26 12:36:01.348	128.0	-2.00331125827815	4.07740002644938	
2015/06/26 12:36:01.350	128.0	-2.00331125827815	4.07740002644938	
2015/06/26 12:36:01.352	128.0	-2.00331125827815	4.07124546037172	
2015/06/26 12:36:01.354	128.0	-2.00331125827815	4.07124546037172	
2015/06/26 12:36:01.356	128.0	-2.00331125827815	4.06201361125523	
2015/06/26 12:36:01.358	128.0	-2.00331125827815	4.06201361125523	
2015/06/26 12:36:01.360	128.0	-2.00638854131698	4.06201361125523	
2015/06/26 12:36:01.362	128.0	-2.00638854131698	4.06201361125523	
2015/06/26 12:36:01.364	128.0	-2.0094658243558	4.07432274341055	
2015/06/26 12:36:01.366	128.0	-2.0094658243558	4.07432274341055	
2015/06/26 12:36:01.368	128.0	-2.00638854131698	4.08047730948821	
2015/06/26 12:36:01.369	128.0	-2.00638854131698	4.08047730948821	
2015/06/26 12:36:01.371	128.0	-2.00638854131698	4.06509089429406	
2015/06/26 12:36:01.373	128.0	-2.00638854131698	4.06509089429406	
2015/06/26 12:36:01.375	128.0	-2.0094658243558	4.06509089429406	
2015/06/26 12:36:01.377	128.0	-2.0094658243558	4.06509089429406	
2015/06/26 12:36:01.379	128.0	-2.01254310739463	4.07124546037172	
2015/06/26 12:36:01.381	128.0	-2.01254310739463	4.07124546037172	
2015/06/26 12:36:01.383	128.0	-2.01869767347229	4.07432274341055	
2015/06/26 12:36:01.385	128.0	-2.01869767347229	4.07432274341055	
2015/06/26 12:36:01.387	128.0	-2.02485223954995	4.07124546037172	
2015/06/26 12:36:01.389	128.0	-2.02485223954995	4.07124546037172	
2015/06/26 12:36:01.391	128.0	-2.02485223954995	4.06509089429406	
2015/06/26 12:36:01.393	128.0	-2.02485223954995	4.06509089429406	
2015/06/26 12:36:01.395	128.0	-2.03100680562761	4.08047730948821	
2015/06/26 12:36:01.397	128.0	-2.03100680562761	4.08047730948821	
2015/06/26 12:36:01.399	128.0	-2.02177495651112	4.08355459252703	
2015/06/26 12:36:01.401	128.0	-2.02177495651112	4.08355459252703	
2015/06/26 12:36:01.403	128.0	-2.00638854131698	4.08970915860469	
2015/06/26 12:36:01.405	128.0	-2.00638854131698	4.08970915860469	
2015/06/26 12:36:01.407	128.0	-2.01562039043346	4.06201361125523	
2015/06/26 12:36:01.409	128.0	-2.01562039043346	4.06201361125523	
2015/06/26 12:36:01.410	128.0	-2.03408408866644	4.0589363282164	
2015/06/26 12:36:01.412	128.0	-2.03408408866644	4.0589363282164	
2015/06/26 12:36:01.414	128.0	-2.03716137170527	4.06201361125523	
2015/06/26 12:36:01.416	128.0	-2.03716137170527	4.06201361125523	
2015/06/26 12:36:01.418	128.0	-2.03716137170527	4.06201361125523	
2015/06/26 12:36:01.420	128.0	-2.01562039043346	4.07432274341055	
2015/06/26 12:36:01.422	128.0	-2.01562039043346	4.07432274341055	
2015/06/26 12:36:01.424	128.0	-2.00331125827815	4.08047730948821	
2015/06/26 12:36:01.426	128.0	-2.00331125827815	4.08047730948821	
2015/06/26 12:36:01.428	128.0	-2.0094658243558	4.08047730948821	
2015/06/26 12:36:01.430	128.0	-2.0094658243558	4.08047730948821	
2015/06/26 12:36:01.432	128.0	-2.01869767347229	4.06816817733289	
2015/06/26 12:36:01.434	128.0	-2.01869767347229	4.06816817733289	
2015/06/26 12:36:01.436	128.0	-2.01254310739463	4.06816817733289	
2015/06/26 12:36:01.438	128.0	-2.01254310739463	4.06816817733289	
2015/06/26 12:36:01.440	128.0	-2.01254310739463	4.06816817733289	
2015/06/26 12:36:01.442	128.0	-2.01254310739463	4.06816817733289	
2015/06/26 12:36:01.444	128.0	-2.0094658243558	4.06816817733289	
2015/06/26 12:36:01.446	128.0	-2.0094658243558	4.06816817733289	
2015/06/26 12:36:01.448	128.0	-2.0094658243558	4.07740002644938	
2015/06/26 12:36:01.450	128.0	-2.0094658243558	4.07740002644938	
2015/06/26 12:36:01.452	128.0	-2.0094658243558	4.08663187556586	
2015/06/26 12:36:01.453	128.0	-2.0094658243558	4.08663187556586	
2015/06/26 12:36:01.455	128.0	-2.01254310739463	4.06509089429406	
2015/06/26 12:36:01.457	128.0	-2.01254310739463	4.06509089429406	
2015/06/26 12:36:01.459	128.0	-2.01254310739463	4.06509089429406	
2015/06/26 12:36:01.461	128.0	-2.01254310739463	4.06509089429406	
2015/06/26 12:36:01.463	128.0	-2.02177495651112	4.09278644164352	
2015/06/26 12:36:01.465	128.0	-2.02177495651112	4.09278644164352	
2015/06/26 12:36:01.467	128.0	-2.02177495651112	4.05585904517757	
2015/06/26 12:36:01.469	128.0	-2.02177495651112	4.05585904517757	
2015/06/26 12:36:01.471	128.0	-2.01869767347229	4.05585904517757	
2015/06/26 12:36:01.473	128.0	-2.01869767347229	4.05585904517757	
2015/06/26 12:36:01.475	128.0	-2.02177495651112	4.06509089429406	
2015/06/26 12:36:01.477	128.0	-2.02177495651112	4.06509089429406	
2015/06/26 12:36:01.479	128.0	-2.02177495651112	4.07124546037172	
2015/06/26 12:36:01.481	128.0	-2.02177495651112	4.07124546037172	
2015/06/26 12:36:01.483	128.0	-2.02177495651112	4.07432274341055	
2015/06/26 12:36:01.485	128.0	-2.02177495651112	4.07432274341055	
2015/06/26 12:36:01.487	128.0	-2.02177495651112	4.07432274341055	
2015/06/26 12:36:01.489	128.0	-2.02177495651112	4.07432274341055	
2015/06/26 12:36:01.491	128.0	-2.02485223954995	4.07124546037172	
2015/06/26 12:36:01.493	128.0	-2.02485223954995	4.07124546037172	
2015/06/26 12:36:01.494	128.0	-2.02485223954995	4.07124546037172	
2015/06/26 12:36:01.496	128.0	-2.02177495651112	4.07124546037172	
2015/06/26 12:36:01.498	128.0	-2.02177495651112	4.07124546037172	
2015/06/26 12:36:01.500	128.0	-2.02177495651112	4.07432274341055	
2015/06/26 12:36:01.502	128.0	-2.02177495651112	4.07432274341055	
2015/06/26 12:36:01.504	128.0	-2.02485223954995	4.08663187556586	
2015/06/26 12:36:01.506	128.0	-2.02485223954995	4.08663187556586	
2015/06/26 12:36:01.508	128.0	-2.02177495651112	4.08970915860469	
2015/06/26 12:36:01.510	128.0	-2.02177495651112	4.08970915860469	
2015/06/26 12:36:01.512	128.0	-2.01562039043346	4.07432274341055	
2015/06/26 12:36:01.514	128.0	-2.01562039043346	4.07432274341055	
2015/06/26 12:36:01.516	128.0	-2.02485223954995	4.05585904517757	
2015/06/26 12:36:01.518	128.0	-2.02485223954995	4.05585904517757	
2015/06/26 12:36:01.520	128.0	-2.0402386547441	4.06816817733289	
2015/06/26 12:36:01.522	128.0	-2.0402386547441	4.06816817733289	
2015/06/26 12:36:01.524	128.0	-2.01562039043346	4.07432274341055	
2015/06/26 12:36:01.526	128.0	-2.01562039043346	4.07432274341055	
2015/06/26 12:36:01.528	128.0	-2.0094658243558	4.07124546037172	
2015/06/26 12:36:01.530	128.0	-2.0094658243558	4.07124546037172	
2015/06/26 12:36:01.532	128.0	-2.01562039043346	4.06816817733289	
2015/06/26 12:36:01.534	128.0	-2.01562039043346	4.06816817733289	
2015/06/26 12:36:01.535	128.0	-2.01869767347229	4.06816817733289	
2015/06/26 12:36:01.537	128.0	-2.01869767347229	4.06816817733289	
2015/06/26 12:36:01.539	128.0	-2.02485223954995	4.07124546037172	
2015/06/26 12:36:01.541	128.0	-2.02485223954995	4.07124546037172	
2015/06/26 12:36:01.543	128.0	-2.01869767347229	4.08663187556586	
2015/06/26 12:36:01.545	128.0	-2.01869767347229	4.08663187556586	
2015/06/26 12:36:01.547	128.0	-2.0094658243558	4.08663187556586	
2015/06/26 12:36:01.549	128.0	-2.0094658243558	4.08663187556586	
2015/06/26 12:36:01.551	128.0	-2.00331125827815	4.06509089429406	
2015/06/26 12:36:01.553	128.0	-2.00331125827815	4.06509089429406	
2015/06/26 12:36:01.555	128.0	-2.0094658243558	4.06816817733289	
2015/06/26 12:36:01.557	128.0	-2.0094658243558	4.06816817733289	
2015/06/26 12:36:01.559	128.0	-2.01869767347229	4.07124546037172	
2015/06/26 12:36:01.561	128.0	-2.01869767347229	4.07124546037172	
2015/06/26 12:36:01.563	128.0	-2.02177495651112	4.08047730948821	
2015/06/26 12:36:01.565	128.0	-2.02177495651112	4.08047730948821	
2015/06/26 12:36:01.567	128.0	-2.02177495651112	4.07740002644938	
2015/06/26 12:36:01.569	128.0	-2.02177495651112	4.07740002644938	
2015/06/26 12:36:01.571	128.0	-2.02177495651112	4.07740002644938	
2015/06/26 12:36:01.573	128.0	-2.01254310739463	4.07432274341055	
2015/06/26 12:36:01.575	128.0	-2.01254310739463	4.07432274341055	
2015/06/26 12:36:01.577	128.0	-2.01562039043346	4.07740002644938	
2015/06/26 12:36:01.578	128.0	-2.01562039043346	4.07740002644938	
2015/06/26 12:36:01.580	128.0	-2.01869767347229	4.06816817733289	
2015/06/26 12:36:01.582	128.0	-2.01869767347229	4.06816817733289	
2015/06/26 12:36:01.584	128.0	-2.01562039043346	4.06816817733289	
2015/06/26 12:36:01.586	128.0	-2.01562039043346	4.06816817733289	
2015/06/26 12:36:01.588	128.0	-2.01869767347229	4.06816817733289	
2015/06/26 12:36:01.590	128.0	-2.01869767347229	4.06816817733289	
2015/06/26 12:36:01.592	128.0	-2.01869767347229	4.06816817733289	
2015/06/26 12:36:01.594	128.0	-2.01869767347229	4.06816817733289	
2015/06/26 12:36:01.596	128.0	-2.01562039043346	4.06816817733289	
2015/06/26 12:36:01.598	128.0	-2.01562039043346	4.06816817733289	
2015/06/26 12:36:01.600	128.0	-2.02485223954995	4.07432274341055	
2015/06/26 12:36:01.602	128.0	-2.02485223954995	4.07432274341055	
2015/06/26 12:36:01.604	128.0	-2.01869767347229	4.07740002644938	
2015/06/26 12:36:01.606	128.0	-2.01869767347229	4.07740002644938	
2015/06/26 12:36:01.608	128.0	-2.01254310739463	4.07124546037172	
2015/06/26 12:36:01.610	128.0	-2.01254310739463	4.07124546037172	
2015/06/26 12:36:01.612	128.0	-2.01254310739463	4.07124546037172	
2015/06/26 12:36:01.614	128.0	-2.01254310739463	4.07124546037172	
2015/06/26 12:36:01.616	128.0	-2.02177495651112	4.08355459252703	
2015/06/26 12:36:01.618	128.0	-2.02177495651112	4.08355459252703	
2015/06/26 12:36:01.619	128.0	-2.03100680562761	4.10201829076001	
2015/06/26 12:36:01.621	128.0	-2.03100680562761	4.10201829076001	
2015/06/26 12:36:01.623	128.0	-2.01869767347229	4.07432274341055	
2015/06/26 12:36:01.625	128.0	-2.01869767347229	4.07432274341055	
2015/06/26 12:36:01.627	128.0	-2.01254310739463	4.0589363282164	
2015/06/26 12:36:01.629	128.0	-2.01254310739463	4.0589363282164	
2015/06/26 12:36:01.631	128.0	-2.01869767347229	4.06816817733289	
2015/06/26 12:36:01.633	128.0	-2.01869767347229	4.06816817733289	
2015/06/26 12:36:01.635	128.0	-2.01869767347229	4.07124546037172	
2015/06/26 12:36:01.637	128.0	-2.01869767347229	4.07124546037172	
2015/06/26 12:36:01.639	128.0	-2.01562039043346	4.08355459252703	
2015/06/26 12:36:01.641	128.0	-2.01562039043346	4.08355459252703	
2015/06/26 12:36:01.643	128.0	-2.01254310739463	4.07432274341055	
2015/06/26 12:36:01.645	128.0	-2.01254310739463	4.07432274341055	
2015/06/26 12:36:01.647	128.0	-2.01254310739463	4.07432274341055	
2015/06/26 12:36:01.649	128.0	-2.01869767347229	4.06816817733289	
2015/06/26 12:36:01.651	128.0	-2.01869767347229	4.06816817733289	
2015/06/26 12:36:01.653	128.0	-2.01869767347229	4.07740002644938	
2015/06/26 12:36:01.655	128.0	-2.01869767347229	4.07740002644938	
2015/06/26 12:36:01.657	128.0	-2.01562039043346	4.07124546037172	
2015/06/26 12:36:01.659	128.0	-2.01562039043346	4.07124546037172	
2015/06/26 12:36:01.660	128.0	-2.01254310739463	4.07740002644938	
2015/06/26 12:36:01.662	128.0	-2.01254310739463	4.07740002644938	
2015/06/26 12:36:01.664	128.0	-2.01254310739463	4.09278644164352	
2015/06/26 12:36:01.666	128.0	-2.01254310739463	4.09278644164352	
2015/06/26 12:36:01.668	128.0	-2.01562039043346	4.07740002644938	
2015/06/26 12:36:01.670	128.0	-2.01562039043346	4.07740002644938	
2015/06/26 12:36:01.672	128.0	-2.0094658243558	4.06509089429406	
2015/06/26 12:36:01.674	128.0	-2.0094658243558	4.06509089429406	
2015/06/26 12:36:01.676	128.0	-2.0094658243558	4.06816817733289	
2015/06/26 12:36:01.678	128.0	-2.0094658243558	4.06816817733289	
2015/06/26 12:36:01.680	128.0	-2.01562039043346	4.07432274341055	
2015/06/26 12:36:01.682	128.0	-2.01562039043346	4.07432274341055	
2015/06/26 12:36:01.684	128.0	-2.02485223954995	4.08047730948821	
2015/06/26 12:36:01.686	128.0	-2.02485223954995	4.08047730948821	
2015/06/26 12:36:01.688	128.0	-2.02177495651112	4.07740002644938	
2015/06/26 12:36:01.690	128.0	-2.02177495651112	4.07740002644938	
2015/06/26 12:36:01.692	128.0	-2.02177495651112	4.07432274341055	
2015/06/26 12:36:01.694	128.0	-2.02177495651112	4.07432274341055	
2015/06/26 12:36:01.696	128.0	-2.02792952258878	4.08663187556586	
2015/06/26 12:36:01.698	128.0	-2.02792952258878	4.08663187556586	
2015/06/26 12:36:01.700	128.0	-2.02177495651112	4.07740002644938	
2015/06/26 12:36:01.702	128.0	-2.02177495651112	4.07740002644938	
2015/06/26 12:36:01.703	128.0	-2.01869767347229	4.07740002644938	
2015/06/26 12:36:01.705	128.0	-2.01869767347229	4.07740002644938	
2015/06/26 12:36:01.707	128.0	-2.01869767347229	4.07432274341055	
2015/06/26 12:36:01.709	128.0	-2.01869767347229	4.07432274341055	
2015/06/26 12:36:01.711	128.0	-2.01562039043346	4.06816817733289	
2015/06/26 12:36:01.713	128.0	-2.01562039043346	4.06816817733289	
2015/06/26 12:36:01.715	128.0	-2.01562039043346	4.06816817733289	
2015/06/26 12:36:01.717	128.0	-2.01562039043346	4.06816817733289	
2015/06/26 12:36:01.719	128.0	-2.02485223954995	4.09278644164352	
2015/06/26 12:36:01.721	128.0	-2.02485223954995	4.09278644164352	
2015/06/26 12:36:01.723	128.0	-2.0402386547441	4.12355927203182	
2015/06/26 12:36:01.725	128.0	-2.0402386547441	4.12355927203182	
2015/06/26 12:36:01.727	128.0	-2.0402386547441	4.12355927203182	
2015/06/26 12:36:01.729	128.0	-2.05562506993825	4.08355459252703	
2015/06/26 12:36:01.731	128.0	-2.05562506993825	4.08355459252703	
2015/06/26 12:36:01.733	128.0	-2.05254778689942	4.04662719606108	
2015/06/26 12:36:01.735	128.0	-2.05254778689942	4.04662719606108	
2015/06/26 12:36:01.737	128.0	-2.03100680562761	4.05278176213874	
2015/06/26 12:36:01.739	128.0	-2.03100680562761	4.05278176213874	
2015/06/26 12:36:01.741	128.0	-2.01562039043346	4.06509089429406	
2015/06/26 12:36:01.743	128.0	-2.01562039043346	4.06509089429406	
2015/06/26 12:36:01.744	128.0	-2.01254310739463	4.07124546037172	
2015/06/26 12:36:01.746	128.0	-2.01254310739463	4.07124546037172	
2015/06/26 12:36:01.748	128.0	-2.01869767347229	4.08047730948821	
2015/06/26 12:36:01.750	128.0	-2.01869767347229	4.08047730948821	
2015/06/26 12:36:01.752	128.0	-2.01869767347229	4.06509089429406	
2015/06/26 12:36:01.754	128.0	-2.01869767347229	4.06509089429406	
2015/06/26 12:36:01.756	128.0	-2.02177495651112	4.06201361125523	
2015/06/26 12:36:01.758	128.0	-2.02177495651112	4.06201361125523	
2015/06/26 12:36:01.760	128.0	-2.02177495651112	4.08047730948821	
2015/06/26 12:36:01.762	128.0	-2.02177495651112	4.08047730948821	
2015/06/26 12:36:01.764	128.0	-2.02485223954995	4.08663187556586	
2015/06/26 12:36:01.766	128.0	-2.02485223954995	4.08663187556586	
2015/06/26 12:36:01.768	128.0	-2.02792952258878	4.07432274341055	
2015/06/26 12:36:01.770	128.0	-2.02792952258878	4.07432274341055	
2015/06/26 12:36:01.772	128.0	-2.02792952258878	4.06816817733289	
2015/06/26 12:36:01.774	128.0	-2.02792952258878	4.06816817733289	
2015/06/26 12:36:01.776	128.0	-2.03100680562761	4.07124546037172	
2015/06/26 12:36:01.778	128.0	-2.03100680562761	4.07124546037172	
2015/06/26 12:36:01.780	128.0	-2.03408408866644	4.08355459252703	
2015/06/26 12:36:01.782	128.0	-2.03408408866644	4.08355459252703	
2015/06/26 12:36:01.784	128.0	-2.03100680562761	4.07432274341055	
2015/06/26 12:36:01.785	128.0	-2.03100680562761	4.07432274341055	
2015/06/26 12:36:01.787	128.0	-2.03100680562761	4.07124546037172	
2015/06/26 12:36:01.789	128.0	-2.03100680562761	4.07124546037172	
2015/06/26 12:36:01.791	128.0	-2.03408408866644	4.06816817733289	
2015/06/26 12:36:01.793	128.0	-2.03408408866644	4.06816817733289	
2015/06/26 12:36:01.795	128.0	-2.02485223954995	4.07432274341055	
2015/06/26 12:36:01.797	128.0	-2.02485223954995	4.07432274341055	
2015/06/26 12:36:01.799	128.0	-2.02485223954995	4.08663187556586	
2015/06/26 12:36:01.801	128.0	-2.02485223954995	4.08663187556586	
2015/06/26 12:36:01.803	128.0	-2.02485223954995	4.08663187556586	
2015/06/26 12:36:01.805	128.0	-2.03408408866644	4.07740002644938	
2015/06/26 12:36:01.807	128.0	-2.03408408866644	4.07740002644938	
2015/06/26 12:36:01.809	128.0	-2.03408408866644	4.06509089429406	
2015/06/26 12:36:01.811	128.0	-2.03408408866644	4.06509089429406	
2015/06/26 12:36:01.813	128.0	-2.03100680562761	4.07432274341055	
2015/06/26 12:36:01.815	128.0	-2.03100680562761	4.07432274341055	
2015/06/26 12:36:01.817	128.0	-2.0402386547441	4.08355459252703	
2015/06/26 12:36:01.819	128.0	-2.0402386547441	4.08355459252703	
2015/06/26 12:36:01.821	128.0	-2.05870235297708	4.08355459252703	
2015/06/26 12:36:01.823	128.0	-2.05870235297708	4.08355459252703	
2015/06/26 12:36:01.825	128.0	-2.04639322082176	4.09278644164352	
2015/06/26 12:36:01.827	128.0	-2.04639322082176	4.09278644164352	
2015/06/26 12:36:01.828	128.0	-2.02792952258878	4.07432274341055	
2015/06/26 12:36:01.830	128.0	-2.02792952258878	4.07432274341055	
2015/06/26 12:36:01.832	128.0	-2.02485223954995	4.06201361125523	
2015/06/26 12:36:01.834	128.0	-2.02485223954995	4.06201361125523	
2015/06/26 12:36:01.836	128.0	-2.02485223954995	4.08047730948821	
2015/06/26 12:36:01.838	128.0	-2.02485223954995	4.08047730948821	
2015/06/26 12:36:01.840	128.0	-2.03100680562761	4.08970915860469	
2015/06/26 12:36:01.842	128.0	-2.03100680562761	4.08970915860469	
2015/06/26 12:36:01.844	128.0	-2.03408408866644	4.08047730948821	
2015/06/26 12:36:01.846	128.0	-2.03408408866644	4.08047730948821	
2015/06/26 12:36:01.848	128.0	-2.04639322082176	4.09278644164352	
2015/06/26 12:36:01.850	128.0	-2.04639322082176	4.09278644164352	
2015/06/26 12:36:01.852	128.0	-2.04331593778293	4.08355459252703	
2015/06/26 12:36:01.854	128.0	-2.04331593778293	4.08355459252703	
2015/06/26 12:36:01.856	128.0	-2.02792952258878	4.05278176213874	
2015/06/26 12:36:01.858	128.0	-2.02792952258878	4.05278176213874	
2015/06/26 12:36:01.860	128.0	-2.02792952258878	4.07124546037172	
2015/06/26 12:36:01.862	128.0	-2.02792952258878	4.07124546037172	
2015/06/26 12:36:01.864	128.0	-2.0402386547441	4.07432274341055	
2015/06/26 12:36:01.866	128.0	-2.0402386547441	4.07432274341055	
2015/06/26 12:36:01.868	128.0	-2.03716137170527	4.07124546037172	
2015/06/26 12:36:01.869	128.0	-2.03716137170527	4.07124546037172	
2015/06/26 12:36:01.871	128.0	-2.03100680562761	4.07124546037172	
2015/06/26 12:36:01.873	128.0	-2.03100680562761	4.07124546037172	
2015/06/26 12:36:01.875	128.0	-2.02792952258878	4.07432274341055	
2015/06/26 12:36:01.877	128.0	-2.02792952258878	4.07432274341055	
2015/06/26 12:36:01.879	128.0	-2.02792952258878	4.07432274341055	
2015/06/26 12:36:01.881	128.0	-2.03408408866644	4.07740002644938	
2015/06/26 12:36:01.883	128.0	-2.03408408866644	4.07740002644938	
2015/06/26 12:36:01.885	128.0	-2.03100680562761	4.08047730948821	
2015/06/26 12:36:01.887	128.0	-2.03100680562761	4.08047730948821	
2015/06/26 12:36:01.889	128.0	-2.03100680562761	4.08355459252703	
2015/06/26 12:36:01.891	128.0	-2.03100680562761	4.08355459252703	
2015/06/26 12:36:01.893	128.0	-2.03100680562761	4.07740002644938	
2015/06/26 12:36:01.895	128.0	-2.03100680562761	4.07740002644938	
2015/06/26 12:36:01.897	128.0	-2.03716137170527	4.07432274341055	
2015/06/26 12:36:01.899	128.0	-2.03716137170527	4.07432274341055	
2015/06/26 12:36:01.901	128.0	-2.03408408866644	4.07432274341055	
2015/06/26 12:36:01.903	128.0	-2.03408408866644	4.07432274341055	
2015/06/26 12:36:01.905	128.0	-2.03100680562761	4.07740002644938	
2015/06/26 12:36:01.907	128.0	-2.03100680562761	4.07740002644938	
2015/06/26 12:36:01.909	128.0	-2.03408408866644	4.08047730948821	
2015/06/26 12:36:01.910	128.0	-2.03408408866644	4.08047730948821	
2015/06/26 12:36:01.912	128.0	-2.03716137170527	4.08047730948821	
2015/06/26 12:36:01.914	128.0	-2.03716137170527	4.08047730948821	
2015/06/26 12:36:01.916	128.0	-2.04331593778293	4.09586372468235	
2015/06/26 12:36:01.918	128.0	-2.04331593778293	4.09586372468235	
2015/06/26 12:36:01.920	128.0	-2.03716137170527	4.08047730948821	
2015/06/26 12:36:01.922	128.0	-2.03716137170527	4.08047730948821	
2015/06/26 12:36:01.924	128.0	-2.03408408866644	4.06201361125523	
2015/06/26 12:36:01.926	128.0	-2.03408408866644	4.06201361125523	
2015/06/26 12:36:01.928	128.0	-2.05562506993825	4.06816817733289	
2015/06/26 12:36:01.930	128.0	-2.05562506993825	4.06816817733289	
2015/06/26 12:36:01.932	128.0	-2.05870235297708	4.06816817733289	
2015/06/26 12:36:01.934	128.0	-2.05870235297708	4.06816817733289	
2015/06/26 12:36:01.936	128.0	-2.03100680562761	4.08047730948821	
2015/06/26 12:36:01.938	128.0	-2.03100680562761	4.08047730948821	
2015/06/26 12:36:01.940	128.0	-2.02485223954995	4.08970915860469	
2015/06/26 12:36:01.942	128.0	-2.02485223954995	4.08970915860469	
2015/06/26 12:36:01.944	128.0	-2.03100680562761	4.09894100772118	
2015/06/26 12:36:01.946	128.0	-2.03100680562761	4.09894100772118	
2015/06/26 12:36:01.948	128.0	-2.03716137170527	4.06816817733289	
2015/06/26 12:36:01.950	128.0	-2.03716137170527	4.06816817733289	
2015/06/26 12:36:01.952	128.0	-2.03716137170527	4.06201361125523	
2015/06/26 12:36:01.953	128.0	-2.03716137170527	4.06201361125523	
2015/06/26 12:36:01.955	128.0	-2.03408408866644	4.07432274341055	
2015/06/26 12:36:01.957	128.0	-2.03408408866644	4.07432274341055	
2015/06/26 12:36:01.959	128.0	-2.03408408866644	4.07432274341055	
2015/06/26 12:36:01.961	128.0	-2.03408408866644	4.07124546037172	
2015/06/26 12:36:01.963	128.0	-2.03408408866644	4.07124546037172	
2015/06/26 12:36:01.965	128.0	-2.03100680562761	4.07124546037172	
2015/06/26 12:36:01.967	128.0	-2.03100680562761	4.07124546037172	
2015/06/26 12:36:01.969	128.0	-2.03100680562761	4.07432274341055	
2015/06/26 12:36:01.971	128.0	-2.03100680562761	4.07432274341055	
2015/06/26 12:36:01.973	128.0	-2.03716137170527	4.07432274341055	
2015/06/26 12:36:01.975	128.0	-2.03716137170527	4.07432274341055	
2015/06/26 12:36:01.977	128.0	-2.03716137170527	4.07432274341055	
2015/06/26 12:36:01.979	128.0	-2.03716137170527	4.07432274341055	
2015/06/26 12:36:01.981	128.0	-2.0402386547441	4.07740002644938	
2015/06/26 12:36:01.983	128.0	-2.0402386547441	4.07740002644938	
2015/06/26 12:36:01.985	128.0	-2.04331593778293	4.07740002644938	
2015/06/26 12:36:01.987	128.0	-2.04331593778293	4.07740002644938	
2015/06/26 12:36:01.989	128.0	-2.04331593778293	4.08355459252703	
2015/06/26 12:36:01.991	128.0	-2.04331593778293	4.08355459252703	
2015/06/26 12:36:01.993	128.0	-2.0402386547441	4.08355459252703	
2015/06/26 12:36:01.994	128.0	-2.0402386547441	4.08355459252703	
2015/06/26 12:36:01.996	128.0	-2.0402386547441	4.06816817733289	
2015/06/26 12:36:01.998	128.0	-2.0402386547441	4.06816817733289	
2015/06/26 12:36:02.000	128.0	-2.03716137170527	4.07740002644938	
2015/06/26 12:36:02.002	128.0	-2.03716137170527	4.07740002644938	
2015/06/26 12:36:02.004	128.0	-2.03408408866644	4.07124546037172	
2015/06/26 12:36:02.006	128.0	-2.03408408866644	4.07124546037172	
2015/06/26 12:36:02.008	128.0	-2.03716137170527	4.07124546037172	
2015/06/26 12:36:02.010	128.0	-2.03716137170527	4.07124546037172	
2015/06/26 12:36:02.012	128.0	-2.0402386547441	4.08355459252703	
2015/06/26 12:36:02.014	128.0	-2.0402386547441	4.08355459252703	
2015/06/26 12:36:02.016	128.0	-2.05254778689942	4.07740002644938	
2015/06/26 12:36:02.018	128.0	-2.05254778689942	4.07740002644938	
2015/06/26 12:36:02.020	128.0	-2.05562506993825	4.07432274341055	
2015/06/26 12:36:02.022	128.0	-2.05562506993825	4.07432274341055	
2015/06/26 12:36:02.024	128.0	-2.05870235297708	4.07740002644938	
2015/06/26 12:36:02.026	128.0	-2.05870235297708	4.07740002644938	
2015/06/26 12:36:02.028	128.0	-2.05562506993825	4.08663187556586	
2015/06/26 12:36:02.030	128.0	-2.05562506993825	4.08663187556586	
2015/06/26 12:36:02.032	128.0	-2.0402386547441	4.06509089429406	
2015/06/26 12:36:02.034	128.0	-2.0402386547441	4.06509089429406	
2015/06/26 12:36:02.035	128.0	-2.0402386547441	4.06509089429406	
2015/06/26 12:36:02.037	128.0	-2.02792952258878	4.07124546037172	
2015/06/26 12:36:02.039	128.0	-2.02792952258878	4.07124546037172	
2015/06/26 12:36:02.041	128.0	-2.03100680562761	4.08047730948821	
2015/06/26 12:36:02.043	128.0	-2.03100680562761	4.08047730948821	
2015/06/26 12:36:02.045	128.0	-2.03716137170527	4.08663187556586	
2015/06/26 12:36:02.047	128.0	-2.03716137170527	4.08663187556586	
2015/06/26 12:36:02.049	128.0	-2.0402386547441	4.07124546037172	
2015/06/26 12:36:02.051	128.0	-2.0402386547441	4.07124546037172	
2015/06/26 12:36:02.053	128.0	-2.04331593778293	4.06509089429406	
2015/06/26 12:36:02.055	128.0	-2.04331593778293	4.06509089429406	
2015/06/26 12:36:02.057	128.0	-2.05870235297708	4.08663187556586	
2015/06/26 12:36:02.059	128.0	-2.05870235297708	4.08663187556586	
2015/06/26 12:36:02.061	128.0	-2.04947050386059	4.07740002644938	
2015/06/26 12:36:02.063	128.0	-2.04947050386059	4.07740002644938	
2015/06/26 12:36:02.065	128.0	-2.03716137170527	4.06816817733289	
2015/06/26 12:36:02.067	128.0	-2.03716137170527	4.06816817733289	
2015/06/26 12:36:02.069	128.0	-2.04331593778293	4.07432274341055	
2015/06/26 12:36:02.071	128.0	-2.04331593778293	4.07432274341055	
2015/06/26 12:36:02.073	128.0	-2.04947050386059	4.06816817733289	
2015/06/26 12:36:02.075	128.0	-2.04947050386059	4.06816817733289	
2015/06/26 12:36:02.077	128.0	-2.04947050386059	4.07124546037172	
2015/06/26 12:36:02.078	128.0	-2.04947050386059	4.07124546037172	
2015/06/26 12:36:02.080	128.0	-2.03716137170527	4.07740002644938	
2015/06/26 12:36:02.082	128.0	-2.03716137170527	4.07740002644938	
2015/06/26 12:36:02.084	128.0	-2.03716137170527	4.07740002644938	
2015/06/26 12:36:02.086	128.0	-2.03716137170527	4.07740002644938	
2015/06/26 12:36:02.088	128.0	-2.03716137170527	4.07124546037172	
2015/06/26 12:36:02.090	128.0	-2.03716137170527	4.07124546037172	
2015/06/26 12:36:02.092	128.0	-2.03100680562761	4.06816817733289	
2015/06/26 12:36:02.094	128.0	-2.03100680562761	4.06816817733289	
2015/06/26 12:36:02.096	128.0	-2.0402386547441	4.08663187556586	
2015/06/26 12:36:02.098	128.0	-2.0402386547441	4.08663187556586	
2015/06/26 12:36:02.100	128.0	-2.04947050386059	4.09586372468235	
2015/06/26 12:36:02.102	128.0	-2.04947050386059	4.09586372468235	
2015/06/26 12:36:02.104	128.0	-2.04639322082176	4.07740002644938	
2015/06/26 12:36:02.106	128.0	-2.04639322082176	4.07740002644938	
2015/06/26 12:36:02.108	128.0	-2.04639322082176	4.06816817733289	
2015/06/26 12:36:02.110	128.0	-2.04639322082176	4.06816817733289	
2015/06/26 12:36:02.112	128.0	-2.04639322082176	4.06816817733289	
2015/06/26 12:36:02.114	128.0	-2.05562506993825	4.06816817733289	
2015/06/26 12:36:02.116	128.0	-2.05562506993825	4.06816817733289	
2015/06/26 12:36:02.118	128.0	-2.05870235297708	4.07432274341055	
2015/06/26 12:36:02.119	128.0	-2.05870235297708	4.07432274341055	
2015/06/26 12:36:02.121	128.0	-2.0402386547441	4.07432274341055	
2015/06/26 12:36:02.123	128.0	-2.0402386547441	4.07432274341055	
2015/06/26 12:36:02.125	128.0	-2.03408408866644	4.07740002644938	
2015/06/26 12:36:02.127	128.0	-2.03408408866644	4.07740002644938	
2015/06/26 12:36:02.129	128.0	-2.03408408866644	4.08663187556586	
2015/06/26 12:36:02.131	128.0	-2.03408408866644	4.08663187556586	
2015/06/26 12:36:02.133	128.0	-2.03408408866644	4.10201829076001	
2015/06/26 12:36:02.135	128.0	-2.03408408866644	4.10201829076001	
2015/06/26 12:36:02.137	128.0	-2.0402386547441	4.07432274341055	
2015/06/26 12:36:02.139	128.0	-2.0402386547441	4.07432274341055	
2015/06/26 12:36:02.141	128.0	-2.04947050386059	4.06201361125523	
2015/06/26 12:36:02.143	128.0	-2.04947050386059	4.06201361125523	
2015/06/26 12:36:02.145	128.0	-2.06177963601591	4.06509089429406	
2015/06/26 12:36:02.147	128.0	-2.06177963601591	4.06509089429406	
2015/06/26 12:36:02.149	128.0	-2.05254778689942	4.06509089429406	
2015/06/26 12:36:02.151	128.0	-2.05254778689942	4.06509089429406	
2015/06/26 12:36:02.153	128.0	-2.04331593778293	4.06816817733289	
2015/06/26 12:36:02.155	128.0	-2.04331593778293	4.06816817733289	
2015/06/26 12:36:02.157	128.0	-2.0402386547441	4.07124546037172	
2015/06/26 12:36:02.159	128.0	-2.0402386547441	4.07124546037172	
2015/06/26 12:36:02.160	128.0	-2.04331593778293	4.07740002644938	
2015/06/26 12:36:02.162	128.0	-2.04331593778293	4.07740002644938	
2015/06/26 12:36:02.164	128.0	-2.04331593778293	4.08047730948821	
2015/06/26 12:36:02.166	128.0	-2.04331593778293	4.08047730948821	
2015/06/26 12:36:02.168	128.0	-2.04639322082176	4.08663187556586	
2015/06/26 12:36:02.170	128.0	-2.04639322082176	4.08663187556586	
2015/06/26 12:36:02.172	128.0	-2.04639322082176	4.07124546037172	
2015/06/26 12:36:02.174	128.0	-2.04639322082176	4.07124546037172	
2015/06/26 12:36:02.176	128.0	-2.06177963601591	4.06201361125523	
2015/06/26 12:36:02.178	128.0	-2.06177963601591	4.06201361125523	
2015/06/26 12:36:02.180	128.0	-2.05254778689942	4.08047730948821	
2015/06/26 12:36:02.182	128.0	-2.05254778689942	4.08047730948821	
2015/06/26 12:36:02.184	128.0	-2.03716137170527	4.08047730948821	
2015/06/26 12:36:02.186	128.0	-2.03716137170527	4.08047730948821	
2015/06/26 12:36:02.188	128.0	-2.03716137170527	4.08047730948821	
2015/06/26 12:36:02.190	128.0	-2.03408408866644	4.07740002644938	
2015/06/26 12:36:02.192	128.0	-2.03408408866644	4.07740002644938	
2015/06/26 12:36:02.194	128.0	-2.0402386547441	4.07740002644938	
2015/06/26 12:36:02.196	128.0	-2.0402386547441	4.07740002644938	
2015/06/26 12:36:02.198	128.0	-2.0402386547441	4.07740002644938	
2015/06/26 12:36:02.200	128.0	-2.0402386547441	4.07740002644938	
2015/06/26 12:36:02.202	128.0	-2.03716137170527	4.07740002644938	
2015/06/26 12:36:02.203	128.0	-2.03716137170527	4.07740002644938	
2015/06/26 12:36:02.205	128.0	-2.03716137170527	4.07124546037172	
2015/06/26 12:36:02.207	128.0	-2.03716137170527	4.07124546037172	
2015/06/26 12:36:02.209	128.0	-2.0402386547441	4.07432274341055	
2015/06/26 12:36:02.211	128.0	-2.0402386547441	4.07432274341055	
2015/06/26 12:36:02.213	128.0	-2.05870235297708	4.07432274341055	
2015/06/26 12:36:02.215	128.0	-2.05870235297708	4.07432274341055	
2015/06/26 12:36:02.217	128.0	-2.05254778689942	4.06816817733289	
2015/06/26 12:36:02.219	128.0	-2.05254778689942	4.06816817733289	
2015/06/26 12:36:02.221	128.0	-2.03408408866644	4.08047730948821	
2015/06/26 12:36:02.223	128.0	-2.03408408866644	4.08047730948821	
2015/06/26 12:36:02.225	128.0	-2.03408408866644	4.08663187556586	
2015/06/26 12:36:02.227	128.0	-2.03408408866644	4.08663187556586	
2015/06/26 12:36:02.229	128.0	-2.03716137170527	4.08663187556586	
2015/06/26 12:36:02.231	128.0	-2.03716137170527	4.08663187556586	
2015/06/26 12:36:02.233	128.0	-2.03716137170527	4.08047730948821	
2015/06/26 12:36:02.235	128.0	-2.03716137170527	4.08047730948821	
2015/06/26 12:36:02.237	128.0	-2.0402386547441	4.06816817733289	
2015/06/26 12:36:02.239	128.0	-2.0402386547441	4.06816817733289	
2015/06/26 12:36:02.241	128.0	-2.04639322082176	4.07124546037172	
2015/06/26 12:36:02.243	128.0	-2.04639322082176	4.07124546037172	
2015/06/26 12:36:02.244	128.0	-2.04331593778293	4.07124546037172	
2015/06/26 12:36:02.246	128.0	-2.04331593778293	4.07124546037172	
2015/06/26 12:36:02.248	128.0	-2.04331593778293	4.06816817733289	
2015/06/26 12:36:02.250	128.0	-2.04331593778293	4.06816817733289	
2015/06/26 12:36:02.252	128.0	-2.03716137170527	4.07740002644938	
2015/06/26 12:36:02.254	128.0	-2.03716137170527	4.07740002644938	
2015/06/26 12:36:02.256	128.0	-2.04331593778293	4.07124546037172	
2015/06/26 12:36:02.258	128.0	-2.04331593778293	4.07124546037172	
2015/06/26 12:36:02.260	128.0	-2.04947050386059	4.07740002644938	
2015/06/26 12:36:02.262	128.0	-2.04947050386059	4.07740002644938	
2015/06/26 12:36:02.264	128.0	-2.04947050386059	4.07740002644938	
2015/06/26 12:36:02.266	128.0	-2.04947050386059	4.07740002644938	
2015/06/26 12:36:02.268	128.0	-2.04947050386059	4.07740002644938	
2015/06/26 12:36:02.270	128.0	-2.03716137170527	4.07432274341055	
2015/06/26 12:36:02.272	128.0	-2.03716137170527	4.07432274341055	
2015/06/26 12:36:02.274	128.0	-2.03716137170527	4.07124546037172	
2015/06/26 12:36:02.276	128.0	-2.03716137170527	4.07124546037172	
2015/06/26 12:36:02.278	128.0	-2.03716137170527	4.08047730948821	
2015/06/26 12:36:02.280	128.0	-2.03716137170527	4.08047730948821	
2015/06/26 12:36:02.282	128.0	-2.03408408866644	4.08047730948821	
2015/06/26 12:36:02.284	128.0	-2.03408408866644	4.08047730948821	
2015/06/26 12:36:02.285	128.0	-2.0402386547441	4.08355459252703	
2015/06/26 12:36:02.287	128.0	-2.0402386547441	4.08355459252703	
2015/06/26 12:36:02.289	128.0	-2.04331593778293	4.10201829076001	
2015/06/26 12:36:02.291	128.0	-2.04331593778293	4.10201829076001	
2015/06/26 12:36:02.293	128.0	-2.04639322082176	4.07124546037172	
2015/06/26 12:36:02.295	128.0	-2.04639322082176	4.07124546037172	
2015/06/26 12:36:02.297	128.0	-2.05254778689942	4.0589363282164	
2015/06/26 12:36:02.299	128.0	-2.05254778689942	4.0589363282164	
2015/06/26 12:36:02.301	128.0	-2.05870235297708	4.07124546037172	
2015/06/26 12:36:02.303	128.0	-2.05870235297708	4.07124546037172	
2015/06/26 12:36:02.305	128.0	-2.05562506993825	4.07740002644938	
2015/06/26 12:36:02.307	128.0	-2.05562506993825	4.07740002644938	
2015/06/26 12:36:02.309	128.0	-2.05562506993825	4.07124546037172	
2015/06/26 12:36:02.311	128.0	-2.05562506993825	4.07124546037172	
2015/06/26 12:36:02.313	128.0	-2.05254778689942	4.07124546037172	
2015/06/26 12:36:02.315	128.0	-2.05254778689942	4.07124546037172	
2015/06/26 12:36:02.317	128.0	-2.03408408866644	4.07124546037172	
2015/06/26 12:36:02.319	128.0	-2.03408408866644	4.07124546037172	
2015/06/26 12:36:02.321	128.0	-2.03100680562761	4.07432274341055	
2015/06/26 12:36:02.323	128.0	-2.03100680562761	4.07432274341055	
2015/06/26 12:36:02.325	128.0	-2.03716137170527	4.08970915860469	
2015/06/26 12:36:02.327	128.0	-2.03716137170527	4.08970915860469	
2015/06/26 12:36:02.328	128.0	-2.0402386547441	4.07740002644938	
2015/06/26 12:36:02.330	128.0	-2.0402386547441	4.07740002644938	
2015/06/26 12:36:02.332	128.0	-2.04331593778293	4.0589363282164	
2015/06/26 12:36:02.334	128.0	-2.04331593778293	4.0589363282164	
2015/06/26 12:36:02.336	128.0	-2.04639322082176	4.07124546037172	
2015/06/26 12:36:02.338	128.0	-2.04639322082176	4.07124546037172	
2015/06/26 12:36:02.340	128.0	-2.04947050386059	4.07740002644938	
2015/06/26 12:36:02.342	128.0	-2.04947050386059	4.07740002644938	
2015/06/26 12:36:02.344	128.0	-2.04947050386059	4.07740002644938	
2015/06/26 12:36:02.346	128.0	-2.04331593778293	4.07740002644938	
2015/06/26 12:36:02.348	128.0	-2.04331593778293	4.07740002644938	
2015/06/26 12:36:02.350	128.0	-2.03408408866644	4.07124546037172	
2015/06/26 12:36:02.352	128.0	-2.03408408866644	4.07124546037172	
2015/06/26 12:36:02.354	128.0	-2.03100680562761	4.07124546037172	
2015/06/26 12:36:02.356	128.0	-2.03100680562761	4.07124546037172	
2015/06/26 12:36:02.358	128.0	-2.03716137170527	4.07432274341055	
2015/06/26 12:36:02.360	128.0	-2.03716137170527	4.07432274341055	
2015/06/26 12:36:02.362	128.0	-2.04331593778293	4.08355459252703	
2015/06/26 12:36:02.364	128.0	-2.04331593778293	4.08355459252703	
2015/06/26 12:36:02.366	128.0	-2.04639322082176	4.08970915860469	
2015/06/26 12:36:02.368	128.0	-2.04639322082176	4.08970915860469	
2015/06/26 12:36:02.369	128.0	-2.04331593778293	4.07124546037172	
2015/06/26 12:36:02.371	128.0	-2.04331593778293	4.07124546037172	
2015/06/26 12:36:02.373	128.0	-2.03716137170527	4.08355459252703	
2015/06/26 12:36:02.375	128.0	-2.03716137170527	4.08355459252703	
2015/06/26 12:36:02.377	128.0	-2.0402386547441	4.08970915860469	
2015/06/26 12:36:02.379	128.0	-2.0402386547441	4.08970915860469	
2015/06/26 12:36:02.381	128.0	-2.04331593778293	4.05585904517757	
2015/06/26 12:36:02.383	128.0	-2.04331593778293	4.05585904517757	
2015/06/26 12:36:02.385	128.0	-2.04331593778293	4.06816817733289	
2015/06/26 12:36:02.387	128.0	-2.04331593778293	4.06816817733289	
2015/06/26 12:36:02.389	128.0	-2.0402386547441	4.06816817733289	
2015/06/26 12:36:02.391	128.0	-2.0402386547441	4.06816817733289	
2015/06/26 12:36:02.393	128.0	-2.03716137170527	4.06816817733289	
2015/06/26 12:36:02.395	128.0	-2.03716137170527	4.06816817733289	
2015/06/26 12:36:02.397	128.0	-2.04639322082176	4.07740002644938	
2015/06/26 12:36:02.399	128.0	-2.04639322082176	4.07740002644938	
2015/06/26 12:36:02.401	128.0	-2.04639322082176	4.09586372468235	
2015/06/26 12:36:02.403	128.0	-2.04639322082176	4.09586372468235	
2015/06/26 12:36:02.405	128.0	-2.03716137170527	4.06816817733289	
2015/06/26 12:36:02.407	128.0	-2.03716137170527	4.06816817733289	
2015/06/26 12:36:02.409	128.0	-2.03408408866644	4.0589363282164	
2015/06/26 12:36:02.410	128.0	-2.03408408866644	4.0589363282164	
2015/06/26 12:36:02.412	128.0	-2.03100680562761	4.06816817733289	
2015/06/26 12:36:02.414	128.0	-2.03100680562761	4.06816817733289	
2015/06/26 12:36:02.416	128.0	-2.03408408866644	4.07124546037172	
2015/06/26 12:36:02.418	128.0	-2.03408408866644	4.07124546037172	
2015/06/26 12:36:02.420	128.0	-2.03408408866644	4.07124546037172	
2015/06/26 12:36:02.422	128.0	-2.04331593778293	4.07740002644938	
2015/06/26 12:36:02.424	128.0	-2.04331593778293	4.07740002644938	
2015/06/26 12:36:02.426	128.0	-2.05870235297708	4.08663187556586	
2015/06/26 12:36:02.428	128.0	-2.05870235297708	4.08663187556586	
2015/06/26 12:36:02.430	128.0	-2.05254778689942	4.08355459252703	
2015/06/26 12:36:02.432	128.0	-2.05254778689942	4.08355459252703	
2015/06/26 12:36:02.434	128.0	-2.03100680562761	4.06816817733289	
2015/06/26 12:36:02.436	128.0	-2.03100680562761	4.06816817733289	
2015/06/26 12:36:02.438	128.0	-2.02792952258878	4.06816817733289	
2015/06/26 12:36:02.440	128.0	-2.02792952258878	4.06816817733289	
2015/06/26 12:36:02.442	128.0	-2.03716137170527	4.07740002644938	
2015/06/26 12:36:02.444	128.0	-2.03716137170527	4.07740002644938	
2015/06/26 12:36:02.446	128.0	-2.04331593778293	4.07432274341055	
2015/06/26 12:36:02.448	128.0	-2.04331593778293	4.07432274341055	
2015/06/26 12:36:02.450	128.0	-2.04639322082176	4.07124546037172	
2015/06/26 12:36:02.452	128.0	-2.04639322082176	4.07124546037172	
2015/06/26 12:36:02.453	128.0	-2.04639322082176	4.07124546037172	
2015/06/26 12:36:02.455	128.0	-2.04639322082176	4.07124546037172	
2015/06/26 12:36:02.457	128.0	-2.04331593778293	4.07740002644938	
2015/06/26 12:36:02.459	128.0	-2.04331593778293	4.07740002644938	
2015/06/26 12:36:02.461	128.0	-2.0402386547441	4.08663187556586	
2015/06/26 12:36:02.463	128.0	-2.0402386547441	4.08663187556586	
2015/06/26 12:36:02.465	128.0	-2.0402386547441	4.07740002644938	
2015/06/26 12:36:02.467	128.0	-2.0402386547441	4.07740002644938	
2015/06/26 12:36:02.469	128.0	-2.04331593778293	4.08355459252703	
2015/06/26 12:36:02.471	128.0	-2.04331593778293	4.08355459252703	
2015/06/26 12:36:02.473	128.0	-2.0402386547441	4.07740002644938	
2015/06/26 12:36:02.475	128.0	-2.0402386547441	4.07740002644938	
2015/06/26 12:36:02.477	128.0	-2.04331593778293	4.0589363282164	
2015/06/26 12:36:02.479	128.0	-2.04331593778293	4.0589363282164	
2015/06/26 12:36:02.481	128.0	-2.04947050386059	4.07124546037172	
2015/06/26 12:36:02.483	128.0	-2.04947050386059	4.07124546037172	
2015/06/26 12:36:02.485	128.0	-2.04639322082176	4.07432274341055	
2015/06/26 12:36:02.487	128.0	-2.04639322082176	4.07432274341055	
2015/06/26 12:36:02.489	128.0	-2.04639322082176	4.08970915860469	
2015/06/26 12:36:02.491	128.0	-2.04639322082176	4.08970915860469	
2015/06/26 12:36:02.493	128.0	-2.04639322082176	4.09278644164352	
2015/06/26 12:36:02.494	128.0	-2.04639322082176	4.09278644164352	
2015/06/26 12:36:02.496	128.0	-2.04331593778293	4.07740002644938	
2015/06/26 12:36:02.498	128.0	-2.04331593778293	4.07740002644938	
2015/06/26 12:36:02.500	128.0	-2.04331593778293	4.07740002644938	
2015/06/26 12:36:02.502	128.0	-2.04639322082176	4.06816817733289	
2015/06/26 12:36:02.504	128.0	-2.04639322082176	4.06816817733289	
2015/06/26 12:36:02.506	128.0	-2.04947050386059	4.06201361125523	
2015/06/26 12:36:02.508	128.0	-2.04947050386059	4.06201361125523	
2015/06/26 12:36:02.510	128.0	-2.06793420209357	4.06509089429406	
2015/06/26 12:36:02.512	128.0	-2.06793420209357	4.06509089429406	
2015/06/26 12:36:02.514	128.0	-2.08024333424889	4.06816817733289	
2015/06/26 12:36:02.516	128.0	-2.08024333424889	4.06816817733289	
2015/06/26 12:36:02.518	128.0	-2.06485691905474	4.07124546037172	
2015/06/26 12:36:02.520	128.0	-2.06485691905474	4.07124546037172	
2015/06/26 12:36:02.522	128.0	-2.0402386547441	4.07124546037172	
2015/06/26 12:36:02.524	128.0	-2.0402386547441	4.07124546037172	
2015/06/26 12:36:02.526	128.0	-2.03408408866644	4.08047730948821	
2015/06/26 12:36:02.528	128.0	-2.03408408866644	4.08047730948821	
2015/06/26 12:36:02.530	128.0	-2.03408408866644	4.08355459252703	
2015/06/26 12:36:02.532	128.0	-2.03408408866644	4.08355459252703	
2015/06/26 12:36:02.534	128.0	-2.03408408866644	4.07124546037172	
2015/06/26 12:36:02.535	128.0	-2.03408408866644	4.07124546037172	
2015/06/26 12:36:02.537	128.0	-2.03408408866644	4.08047730948821	
2015/06/26 12:36:02.539	128.0	-2.03408408866644	4.08047730948821	
2015/06/26 12:36:02.541	128.0	-2.0402386547441	4.08355459252703	
2015/06/26 12:36:02.543	128.0	-2.0402386547441	4.08355459252703	
2015/06/26 12:36:02.545	128.0	-2.0402386547441	4.05585904517757	
2015/06/26 12:36:02.547	128.0	-2.0402386547441	4.05585904517757	
2015/06/26 12:36:02.549	128.0	-2.04331593778293	4.0589363282164	
2015/06/26 12:36:02.551	128.0	-2.04331593778293	4.0589363282164	
2015/06/26 12:36:02.553	128.0	-2.04331593778293	4.07432274341055	
2015/06/26 12:36:02.555	128.0	-2.04331593778293	4.07432274341055	
2015/06/26 12:36:02.557	128.0	-2.04331593778293	4.08047730948821	
2015/06/26 12:36:02.559	128.0	-2.04331593778293	4.08047730948821	
2015/06/26 12:36:02.561	128.0	-2.04331593778293	4.07432274341055	
2015/06/26 12:36:02.563	128.0	-2.04331593778293	4.07432274341055	
2015/06/26 12:36:02.565	128.0	-2.04639322082176	4.07124546037172	
2015/06/26 12:36:02.567	128.0	-2.04639322082176	4.07124546037172	
2015/06/26 12:36:02.569	128.0	-2.04639322082176	4.07740002644938	
2015/06/26 12:36:02.571	128.0	-2.04639322082176	4.07740002644938	
2015/06/26 12:36:02.573	128.0	-2.04331593778293	4.07432274341055	
2015/06/26 12:36:02.575	128.0	-2.04331593778293	4.07432274341055	
2015/06/26 12:36:02.577	128.0	-2.04331593778293	4.07432274341055	
2015/06/26 12:36:02.578	128.0	-2.0402386547441	4.08355459252703	
2015/06/26 12:36:02.580	128.0	-2.0402386547441	4.08355459252703	
2015/06/26 12:36:02.582	128.0	-2.04331593778293	4.07740002644938	
2015/06/26 12:36:02.584	128.0	-2.04331593778293	4.07740002644938	
2015/06/26 12:36:02.586	128.0	-2.04947050386059	4.06816817733289	
2015/06/26 12:36:02.588	128.0	-2.04947050386059	4.06816817733289	
2015/06/26 12:36:02.590	128.0	-2.04331593778293	4.07740002644938	
2015/06/26 12:36:02.592	128.0	-2.04331593778293	4.07740002644938	
2015/06/26 12:36:02.594	128.0	-2.04331593778293	4.09278644164352	
2015/06/26 12:36:02.596	128.0	-2.04331593778293	4.09278644164352	
2015/06/26 12:36:02.598	128.0	-2.04947050386059	4.07432274341055	
2015/06/26 12:36:02.600	128.0	-2.04947050386059	4.07432274341055	
2015/06/26 12:36:02.602	128.0	-2.0402386547441	4.0589363282164	
2015/06/26 12:36:02.604	128.0	-2.0402386547441	4.0589363282164	
2015/06/26 12:36:02.606	128.0	-2.0402386547441	4.07124546037172	
2015/06/26 12:36:02.608	128.0	-2.0402386547441	4.07124546037172	
2015/06/26 12:36:02.610	128.0	-2.03716137170527	4.07124546037172	
2015/06/26 12:36:02.612	128.0	-2.03716137170527	4.07124546037172	
2015/06/26 12:36:02.614	128.0	-2.03408408866644	4.07124546037172	
2015/06/26 12:36:02.616	128.0	-2.03408408866644	4.07124546037172	
2015/06/26 12:36:02.618	128.0	-2.0402386547441	4.07124546037172	
2015/06/26 12:36:02.619	128.0	-2.0402386547441	4.07124546037172	
2015/06/26 12:36:02.621	128.0	-2.05870235297708	4.07432274341055	
2015/06/26 12:36:02.623	128.0	-2.05870235297708	4.07432274341055	
2015/06/26 12:36:02.625	128.0	-2.05562506993825	4.07740002644938	
2015/06/26 12:36:02.627	128.0	-2.05562506993825	4.07740002644938	
2015/06/26 12:36:02.629	128.0	-2.03716137170527	4.06816817733289	
2015/06/26 12:36:02.631	128.0	-2.03716137170527	4.06816817733289	
2015/06/26 12:36:02.633	128.0	-2.03408408866644	4.06816817733289	
2015/06/26 12:36:02.635	128.0	-2.03408408866644	4.06816817733289	
2015/06/26 12:36:02.637	128.0	-2.03716137170527	4.08355459252703	
2015/06/26 12:36:02.639	128.0	-2.03716137170527	4.08355459252703	
2015/06/26 12:36:02.641	128.0	-2.0402386547441	4.07740002644938	
2015/06/26 12:36:02.643	128.0	-2.0402386547441	4.07740002644938	
2015/06/26 12:36:02.645	128.0	-2.04639322082176	4.07124546037172	
2015/06/26 12:36:02.647	128.0	-2.04639322082176	4.07124546037172	
2015/06/26 12:36:02.649	128.0	-2.05254778689942	4.07124546037172	
2015/06/26 12:36:02.651	128.0	-2.05254778689942	4.07124546037172	
2015/06/26 12:36:02.653	128.0	-2.05254778689942	4.07124546037172	
2015/06/26 12:36:02.655	128.0	-2.06485691905474	4.07124546037172	
2015/06/26 12:36:02.657	128.0	-2.06485691905474	4.07124546037172	
2015/06/26 12:36:02.659	128.0	-2.05870235297708	4.07740002644938	
2015/06/26 12:36:02.660	128.0	-2.05870235297708	4.07740002644938	
2015/06/26 12:36:02.662	128.0	-2.0402386547441	4.08355459252703	
2015/06/26 12:36:02.664	128.0	-2.0402386547441	4.08355459252703	
2015/06/26 12:36:02.666	128.0	-2.03100680562761	4.07124546037172	
2015/06/26 12:36:02.668	128.0	-2.03100680562761	4.07124546037172	
2015/06/26 12:36:02.670	128.0	-2.03408408866644	4.06509089429406	
2015/06/26 12:36:02.672	128.0	-2.03408408866644	4.06509089429406	
2015/06/26 12:36:02.674	128.0	-2.03100680562761	4.06509089429406	
2015/06/26 12:36:02.676	128.0	-2.03100680562761	4.06509089429406	
2015/06/26 12:36:02.678	128.0	-2.03100680562761	4.08047730948821	
2015/06/26 12:36:02.680	128.0	-2.03100680562761	4.08047730948821	
2015/06/26 12:36:02.682	128.0	-2.04331593778293	4.09278644164352	
2015/06/26 12:36:02.684	128.0	-2.04331593778293	4.09278644164352	
2015/06/26 12:36:02.686	128.0	-2.04639322082176	4.06816817733289	
2015/06/26 12:36:02.688	128.0	-2.04639322082176	4.06816817733289	
2015/06/26 12:36:02.690	128.0	-2.0402386547441	4.07740002644938	
2015/06/26 12:36:02.692	128.0	-2.0402386547441	4.07740002644938	
2015/06/26 12:36:02.694	128.0	-2.0402386547441	4.07124546037172	
2015/06/26 12:36:02.696	128.0	-2.0402386547441	4.07124546037172	
2015/06/26 12:36:02.698	128.0	-2.04331593778293	4.07124546037172	
2015/06/26 12:36:02.700	128.0	-2.04331593778293	4.07124546037172	
2015/06/26 12:36:02.702	128.0	-2.05254778689942	4.08047730948821	
2015/06/26 12:36:02.703	128.0	-2.05254778689942	4.08047730948821	
2015/06/26 12:36:02.705	128.0	-2.06485691905474	4.10201829076001	
2015/06/26 12:36:02.707	128.0	-2.06485691905474	4.10201829076001	
2015/06/26 12:36:02.709	128.0	-2.05254778689942	4.09586372468235	
2015/06/26 12:36:02.711	128.0	-2.05254778689942	4.09586372468235	
2015/06/26 12:36:02.713	128.0	-2.03100680562761	4.04970447909991	
2015/06/26 12:36:02.715	128.0	-2.03100680562761	4.04970447909991	
2015/06/26 12:36:02.717	128.0	-2.03716137170527	4.06509089429406	
2015/06/26 12:36:02.719	128.0	-2.03716137170527	4.06509089429406	
2015/06/26 12:36:02.721	128.0	-2.06177963601591	4.07432274341055	
2015/06/26 12:36:02.723	128.0	-2.06177963601591	4.07432274341055	
2015/06/26 12:36:02.725	128.0	-2.06177963601591	4.07124546037172	
2015/06/26 12:36:02.727	128.0	-2.06177963601591	4.07124546037172	
2015/06/26 12:36:02.729	128.0	-2.06177963601591	4.07124546037172	
2015/06/26 12:36:02.731	128.0	-2.0402386547441	4.06509089429406	
2015/06/26 12:36:02.733	128.0	-2.0402386547441	4.06509089429406	
2015/06/26 12:36:02.735	128.0	-2.0402386547441	4.06816817733289	
2015/06/26 12:36:02.737	128.0	-2.0402386547441	4.06816817733289	
2015/06/26 12:36:02.739	128.0	-2.0402386547441	4.07124546037172	
2015/06/26 12:36:02.741	128.0	-2.0402386547441	4.07124546037172	
2015/06/26 12:36:02.743	128.0	-2.04639322082176	4.07740002644938	
2015/06/26 12:36:02.744	128.0	-2.04639322082176	4.07740002644938	
2015/06/26 12:36:02.746	128.0	-2.04947050386059	4.07432274341055	
2015/06/26 12:36:02.748	128.0	-2.04947050386059	4.07432274341055	
2015/06/26 12:36:02.750	128.0	-2.05254778689942	4.07740002644938	
2015/06/26 12:36:02.752	128.0	-2.05254778689942	4.07740002644938	
2015/06/26 12:36:02.754	128.0	-2.05562506993825	4.07740002644938	
2015/06/26 12:36:02.756	128.0	-2.05562506993825	4.07740002644938	
2015/06/26 12:36:02.758	128.0	-2.05562506993825	4.08047730948821	
2015/06/26 12:36:02.760	128.0	-2.05562506993825	4.08047730948821	
2015/06/26 12:36:02.762	128.0	-2.06177963601591	4.07740002644938	
2015/06/26 12:36:02.764	128.0	-2.06177963601591	4.07740002644938	
2015/06/26 12:36:02.766	128.0	-2.05870235297708	4.06816817733289	
2015/06/26 12:36:02.768	128.0	-2.05870235297708	4.06816817733289	
2015/06/26 12:36:02.770	128.0	-2.04331593778293	4.06816817733289	
2015/06/26 12:36:02.772	128.0	-2.04331593778293	4.06816817733289	
2015/06/26 12:36:02.774	128.0	-2.03408408866644	4.07124546037172	
2015/06/26 12:36:02.776	128.0	-2.03408408866644	4.07124546037172	
2015/06/26 12:36:02.778	128.0	-2.04639322082176	4.07740002644938	
2015/06/26 12:36:02.780	128.0	-2.04639322082176	4.07740002644938	
2015/06/26 12:36:02.782	128.0	-2.05870235297708	4.08663187556586	
2015/06/26 12:36:02.784	128.0	-2.05870235297708	4.08663187556586	
2015/06/26 12:36:02.785	128.0	-2.0710114851324	4.08663187556586	
2015/06/26 12:36:02.787	128.0	-2.0710114851324	4.08663187556586	
2015/06/26 12:36:02.789	128.0	-2.04947050386059	4.06201361125523	
2015/06/26 12:36:02.791	128.0	-2.04947050386059	4.06201361125523	
2015/06/26 12:36:02.793	128.0	-2.02792952258878	4.06509089429406	
2015/06/26 12:36:02.795	128.0	-2.02792952258878	4.06509089429406	
2015/06/26 12:36:02.797	128.0	-2.0402386547441	4.08047730948821	
2015/06/26 12:36:02.799	128.0	-2.0402386547441	4.08047730948821	
2015/06/26 12:36:02.801	128.0	-2.04331593778293	4.08663187556586	
2015/06/26 12:36:02.803	128.0	-2.04331593778293	4.08663187556586	
2015/06/26 12:36:02.805	128.0	-2.04639322082176	4.08355459252703	
2015/06/26 12:36:02.807	128.0	-2.04639322082176	4.08355459252703	
2015/06/26 12:36:02.809	128.0	-2.04639322082176	4.08355459252703	
2015/06/26 12:36:02.811	128.0	-2.04947050386059	4.05278176213874	
2015/06/26 12:36:02.813	128.0	-2.04947050386059	4.05278176213874	
2015/06/26 12:36:02.815	128.0	-2.05870235297708	4.06201361125523	
2015/06/26 12:36:02.817	128.0	-2.05870235297708	4.06201361125523	
2015/06/26 12:36:02.819	128.0	-2.06793420209357	4.07124546037172	
2015/06/26 12:36:02.821	128.0	-2.06793420209357	4.07124546037172	
2015/06/26 12:36:02.823	128.0	-2.06177963601591	4.09586372468235	
2015/06/26 12:36:02.825	128.0	-2.06177963601591	4.09586372468235	
2015/06/26 12:36:02.827	128.0	-2.05562506993825	4.07740002644938	
2015/06/26 12:36:02.828	128.0	-2.05562506993825	4.07740002644938	
2015/06/26 12:36:02.830	128.0	-2.04639322082176	4.05278176213874	
2015/06/26 12:36:02.832	128.0	-2.04639322082176	4.05278176213874	
2015/06/26 12:36:02.834	128.0	-2.03716137170527	4.06201361125523	
2015/06/26 12:36:02.836	128.0	-2.03716137170527	4.06201361125523	
2015/06/26 12:36:02.838	128.0	-2.04331593778293	4.07432274341055	
2015/06/26 12:36:02.840	128.0	-2.04331593778293	4.07432274341055	
2015/06/26 12:36:02.842	128.0	-2.04639322082176	4.09278644164352	
2015/06/26 12:36:02.844	128.0	-2.04639322082176	4.09278644164352	
2015/06/26 12:36:02.846	128.0	-2.04639322082176	4.07124546037172	
2015/06/26 12:36:02.848	128.0	-2.04639322082176	4.07124546037172	
2015/06/26 12:36:02.850	128.0	-2.04639322082176	4.06201361125523	
2015/06/26 12:36:02.852	128.0	-2.04639322082176	4.06201361125523	
2015/06/26 12:36:02.854	128.0	-2.04639322082176	4.06509089429406	
2015/06/26 12:36:02.856	128.0	-2.04639322082176	4.06509089429406	
2015/06/26 12:36:02.858	128.0	-2.04947050386059	4.06816817733289	
2015/06/26 12:36:02.860	128.0	-2.04947050386059	4.06816817733289	
2015/06/26 12:36:02.862	128.0	-2.05254778689942	4.07124546037172	
2015/06/26 12:36:02.864	128.0	-2.05254778689942	4.07124546037172	
2015/06/26 12:36:02.866	128.0	-2.04639322082176	4.08970915860469	
2015/06/26 12:36:02.868	128.0	-2.04639322082176	4.08970915860469	
2015/06/26 12:36:02.869	128.0	-2.03716137170527	4.08970915860469	
2015/06/26 12:36:02.871	128.0	-2.03716137170527	4.08970915860469	
2015/06/26 12:36:02.873	128.0	-2.0402386547441	4.05585904517757	
2015/06/26 12:36:02.875	128.0	-2.0402386547441	4.05585904517757	
2015/06/26 12:36:02.877	128.0	-2.04947050386059	4.06816817733289	
2015/06/26 12:36:02.879	128.0	-2.04947050386059	4.06816817733289	
2015/06/26 12:36:02.881	128.0	-2.04947050386059	4.08047730948821	
2015/06/26 12:36:02.883	128.0	-2.04947050386059	4.08047730948821	
2015/06/26 12:36:02.885	128.0	-2.04947050386059	4.08047730948821	
2015/06/26 12:36:02.887	128.0	-2.0402386547441	4.08355459252703	
2015/06/26 12:36:02.889	128.0	-2.0402386547441	4.08355459252703	
2015/06/26 12:36:02.891	128.0	-2.03716137170527	4.07740002644938	
2015/06/26 12:36:02.893	128.0	-2.03716137170527	4.07740002644938	
2015/06/26 12:36:02.895	128.0	-2.03716137170527	4.0589363282164	
2015/06/26 12:36:02.897	128.0	-2.03716137170527	4.0589363282164	
2015/06/26 12:36:02.899	128.0	-2.04331593778293	4.07740002644938	
2015/06/26 12:36:02.901	128.0	-2.04331593778293	4.07740002644938	
2015/06/26 12:36:02.903	128.0	-2.04947050386059	4.07740002644938	
2015/06/26 12:36:02.905	128.0	-2.04947050386059	4.07740002644938	
2015/06/26 12:36:02.907	128.0	-2.05562506993825	4.06509089429406	
2015/06/26 12:36:02.909	128.0	-2.05562506993825	4.06509089429406	
2015/06/26 12:36:02.910	128.0	-2.05254778689942	4.07124546037172	
2015/06/26 12:36:02.912	128.0	-2.05254778689942	4.07124546037172	
2015/06/26 12:36:02.914	128.0	-2.04947050386059	4.06816817733289	
2015/06/26 12:36:02.916	128.0	-2.04947050386059	4.06816817733289	
2015/06/26 12:36:02.918	128.0	-2.06177963601591	4.07740002644938	
2015/06/26 12:36:02.920	128.0	-2.06177963601591	4.07740002644938	
2015/06/26 12:36:02.922	128.0	-2.06177963601591	4.08970915860469	
2015/06/26 12:36:02.924	128.0	-2.06177963601591	4.08970915860469	
2015/06/26 12:36:02.926	128.0	-2.03716137170527	4.06201361125523	
2015/06/26 12:36:02.928	128.0	-2.03716137170527	4.06201361125523	
2015/06/26 12:36:02.930	128.0	-2.03408408866644	4.05585904517757	
2015/06/26 12:36:02.932	128.0	-2.03408408866644	4.05585904517757	
2015/06/26 12:36:02.934	128.0	-2.04331593778293	4.06509089429406	
2015/06/26 12:36:02.936	128.0	-2.04331593778293	4.06509089429406	
2015/06/26 12:36:02.938	128.0	-2.06177963601591	4.08663187556586	
2015/06/26 12:36:02.940	128.0	-2.06177963601591	4.08663187556586	
2015/06/26 12:36:02.942	128.0	-2.06485691905474	4.07432274341055	
2015/06/26 12:36:02.944	128.0	-2.06485691905474	4.07432274341055	
2015/06/26 12:36:02.946	128.0	-2.05870235297708	4.06816817733289	
2015/06/26 12:36:02.948	128.0	-2.05870235297708	4.06816817733289	
2015/06/26 12:36:02.950	128.0	-2.0402386547441	4.07124546037172	
2015/06/26 12:36:02.952	128.0	-2.0402386547441	4.07124546037172	
2015/06/26 12:36:02.953	128.0	-2.03100680562761	4.07124546037172	
2015/06/26 12:36:02.955	128.0	-2.03100680562761	4.07124546037172	
2015/06/26 12:36:02.957	128.0	-2.03716137170527	4.07740002644938	
2015/06/26 12:36:02.959	128.0	-2.03716137170527	4.07740002644938	
2015/06/26 12:36:02.961	128.0	-2.03716137170527	4.07740002644938	
2015/06/26 12:36:02.963	128.0	-2.04639322082176	4.08970915860469	
2015/06/26 12:36:02.965	128.0	-2.04639322082176	4.08970915860469	
2015/06/26 12:36:02.967	128.0	-2.04639322082176	4.08355459252703	
2015/06/26 12:36:02.969	128.0	-2.04639322082176	4.08355459252703	
2015/06/26 12:36:02.971	128.0	-2.03716137170527	4.06816817733289	
2015/06/26 12:36:02.973	128.0	-2.03716137170527	4.06816817733289	
2015/06/26 12:36:02.975	128.0	-2.03408408866644	4.06816817733289	
2015/06/26 12:36:02.977	128.0	-2.03408408866644	4.06816817733289	
2015/06/26 12:36:02.979	128.0	-2.0402386547441	4.06509089429406	
2015/06/26 12:36:02.981	128.0	-2.0402386547441	4.06509089429406	
2015/06/26 12:36:02.983	128.0	-2.0402386547441	4.07740002644938	
2015/06/26 12:36:02.985	128.0	-2.0402386547441	4.07740002644938	
2015/06/26 12:36:02.987	128.0	-2.04947050386059	4.07124546037172	
2015/06/26 12:36:02.989	128.0	-2.04947050386059	4.07124546037172	
2015/06/26 12:36:02.991	128.0	-2.04639322082176	4.07124546037172	
2015/06/26 12:36:02.993	128.0	-2.04639322082176	4.07124546037172	
2015/06/26 12:36:02.994	128.0	-2.04639322082176	4.06816817733289	
2015/06/26 12:36:02.996	128.0	-2.04639322082176	4.06816817733289	
2015/06/26 12:36:02.998	128.0	-2.04639322082176	4.07740002644938	
2015/06/26 12:36:03.000	128.0	-2.04639322082176	4.07740002644938	
2015/06/26 12:36:03.002	128.0	-2.04639322082176	4.09894100772118	
2015/06/26 12:36:03.004	128.0	-2.04639322082176	4.09894100772118	
2015/06/26 12:36:03.006	128.0	-2.04331593778293	4.07432274341055	
2015/06/26 12:36:03.008	128.0	-2.04331593778293	4.07432274341055	
2015/06/26 12:36:03.010	128.0	-2.04639322082176	4.05278176213874	
2015/06/26 12:36:03.012	128.0	-2.04639322082176	4.05278176213874	
2015/06/26 12:36:03.014	128.0	-2.0402386547441	4.05585904517757	
2015/06/26 12:36:03.016	128.0	-2.0402386547441	4.05585904517757	
2015/06/26 12:36:03.018	128.0	-2.03716137170527	4.07740002644938	
2015/06/26 12:36:03.020	128.0	-2.03716137170527	4.07740002644938	
2015/06/26 12:36:03.022	128.0	-2.04947050386059	4.09278644164352	
2015/06/26 12:36:03.024	128.0	-2.04947050386059	4.09278644164352	
2015/06/26 12:36:03.026	128.0	-2.06485691905474	4.06509089429406	
2015/06/26 12:36:03.028	128.0	-2.06485691905474	4.06509089429406	
2015/06/26 12:36:03.030	128.0	-2.04947050386059	4.06201361125523	
2015/06/26 12:36:03.032	128.0	-2.04947050386059	4.06201361125523	
2015/06/26 12:36:03.034	128.0	-2.03716137170527	4.06509089429406	
2015/06/26 12:36:03.035	128.0	-2.03716137170527	4.06509089429406	
2015/06/26 12:36:03.037	128.0	-2.03716137170527	4.07432274341055	
2015/06/26 12:36:03.039	128.0	-2.03716137170527	4.07432274341055	
2015/06/26 12:36:03.041	128.0	-2.03716137170527	4.07432274341055	
2015/06/26 12:36:03.043	128.0	-2.04331593778293	4.07740002644938	
2015/06/26 12:36:03.045	128.0	-2.04331593778293	4.07740002644938	
2015/06/26 12:36:03.047	128.0	-2.04331593778293	4.08355459252703	
2015/06/26 12:36:03.049	128.0	-2.04331593778293	4.08355459252703	
2015/06/26 12:36:03.051	128.0	-2.0402386547441	4.07740002644938	
2015/06/26 12:36:03.053	128.0	-2.0402386547441	4.07740002644938	
2015/06/26 12:36:03.055	128.0	-2.04331593778293	4.06201361125523	
2015/06/26 12:36:03.057	128.0	-2.04331593778293	4.06201361125523	
2015/06/26 12:36:03.059	128.0	-2.04947050386059	4.06509089429406	
2015/06/26 12:36:03.061	128.0	-2.04947050386059	4.06509089429406	
2015/06/26 12:36:03.063	128.0	-2.04947050386059	4.07740002644938	
2015/06/26 12:36:03.065	128.0	-2.04947050386059	4.07740002644938	
2015/06/26 12:36:03.067	128.0	-2.05254778689942	4.07740002644938	
2015/06/26 12:36:03.069	128.0	-2.05254778689942	4.07740002644938	
2015/06/26 12:36:03.071	128.0	-2.05870235297708	4.08355459252703	
2015/06/26 12:36:03.073	128.0	-2.05870235297708	4.08355459252703	
2015/06/26 12:36:03.075	128.0	-2.04947050386059	4.06509089429406	
2015/06/26 12:36:03.077	128.0	-2.04947050386059	4.06509089429406	
2015/06/26 12:36:03.078	128.0	-2.05254778689942	4.06816817733289	
2015/06/26 12:36:03.080	128.0	-2.05254778689942	4.06816817733289	
2015/06/26 12:36:03.082	128.0	-2.04639322082176	4.08355459252703	
2015/06/26 12:36:03.084	128.0	-2.04639322082176	4.08355459252703	
2015/06/26 12:36:03.086	128.0	-2.03716137170527	4.08970915860469	
2015/06/26 12:36:03.088	128.0	-2.03716137170527	4.08970915860469	
2015/06/26 12:36:03.090	128.0	-2.04639322082176	4.06509089429406	
2015/06/26 12:36:03.092	128.0	-2.04639322082176	4.06509089429406	
2015/06/26 12:36:03.094	128.0	-2.05254778689942	4.06201361125523	
2015/06/26 12:36:03.096	128.0	-2.05254778689942	4.06201361125523	
2015/06/26 12:36:03.098	128.0	-2.0402386547441	4.06816817733289	
2015/06/26 12:36:03.100	128.0	-2.0402386547441	4.06816817733289	
2015/06/26 12:36:03.102	128.0	-2.03100680562761	4.08047730948821	
2015/06/26 12:36:03.104	128.0	-2.03100680562761	4.08047730948821	
2015/06/26 12:36:03.106	128.0	-2.0402386547441	4.08663187556586	
2015/06/26 12:36:03.108	128.0	-2.0402386547441	4.08663187556586	
2015/06/26 12:36:03.110	128.0	-2.04947050386059	4.05585904517757	
2015/06/26 12:36:03.112	128.0	-2.04947050386059	4.05585904517757	
2015/06/26 12:36:03.114	128.0	-2.04947050386059	4.06201361125523	
2015/06/26 12:36:03.116	128.0	-2.04947050386059	4.06201361125523	
2015/06/26 12:36:03.118	128.0	-2.04947050386059	4.06201361125523	
2015/06/26 12:36:03.119	128.0	-2.03716137170527	4.09894100772118	
2015/06/26 12:36:03.121	128.0	-2.03716137170527	4.09894100772118	
2015/06/26 12:36:03.123	128.0	-2.03716137170527	4.07432274341055	
2015/06/26 12:36:03.125	128.0	-2.03716137170527	4.07432274341055	
2015/06/26 12:36:03.127	128.0	-2.04331593778293	4.0589363282164	
2015/06/26 12:36:03.129	128.0	-2.04331593778293	4.0589363282164	
2015/06/26 12:36:03.131	128.0	-2.04331593778293	4.06509089429406	
2015/06/26 12:36:03.133	128.0	-2.04331593778293	4.06509089429406	
2015/06/26 12:36:03.135	128.0	-2.04331593778293	4.06816817733289	
2015/06/26 12:36:03.137	128.0	-2.04331593778293	4.06816817733289	
2015/06/26 12:36:03.139	128.0	-2.04947050386059	4.07432274341055	
2015/06/26 12:36:03.141	128.0	-2.04947050386059	4.07432274341055	
2015/06/26 12:36:03.143	128.0	-2.05254778689942	4.07740002644938	
2015/06/26 12:36:03.145	128.0	-2.05254778689942	4.07740002644938	
2015/06/26 12:36:03.147	128.0	-2.04331593778293	4.07432274341055	
2015/06/26 12:36:03.149	128.0	-2.04331593778293	4.07432274341055	
2015/06/26 12:36:03.151	128.0	-2.0402386547441	4.08355459252703	
2015/06/26 12:36:03.153	128.0	-2.0402386547441	4.08355459252703	
2015/06/26 12:36:03.155	128.0	-2.0402386547441	4.08047730948821	
2015/06/26 12:36:03.157	128.0	-2.0402386547441	4.08047730948821	
2015/06/26 12:36:03.159	128.0	-2.04331593778293	4.07124546037172	
2015/06/26 12:36:03.160	128.0	-2.04331593778293	4.07124546037172	
2015/06/26 12:36:03.162	128.0	-2.04639322082176	4.06509089429406	
2015/06/26 12:36:03.164	128.0	-2.04639322082176	4.06509089429406	
2015/06/26 12:36:03.166	128.0	-2.04639322082176	4.06509089429406	
2015/06/26 12:36:03.168	128.0	-2.04639322082176	4.06509089429406	
2015/06/26 12:36:03.170	128.0	-2.04639322082176	4.06816817733289	
2015/06/26 12:36:03.172	128.0	-2.04639322082176	4.06816817733289	
2015/06/26 12:36:03.174	128.0	-2.04331593778293	4.07124546037172	
2015/06/26 12:36:03.176	128.0	-2.04331593778293	4.07124546037172	
2015/06/26 12:36:03.178	128.0	-2.0402386547441	4.07740002644938	
2015/06/26 12:36:03.180	128.0	-2.0402386547441	4.07740002644938	
2015/06/26 12:36:03.182	128.0	-2.05870235297708	4.07124546037172	
2015/06/26 12:36:03.184	128.0	-2.05870235297708	4.07124546037172	
2015/06/26 12:36:03.186	128.0	-2.06177963601591	4.06509089429406	
2015/06/26 12:36:03.188	128.0	-2.06177963601591	4.06509089429406	
2015/06/26 12:36:03.190	128.0	-2.0402386547441	4.07124546037172	
2015/06/26 12:36:03.192	128.0	-2.0402386547441	4.07124546037172	
2015/06/26 12:36:03.194	128.0	-2.0402386547441	4.07124546037172	
2015/06/26 12:36:03.196	128.0	-2.03100680562761	4.08355459252703	
2015/06/26 12:36:03.198	128.0	-2.03100680562761	4.08355459252703	
2015/06/26 12:36:03.200	128.0	-2.03716137170527	4.08047730948821	
2015/06/26 12:36:03.202	128.0	-2.03716137170527	4.08047730948821	
2015/06/26 12:36:03.203	128.0	-2.05870235297708	4.07432274341055	
2015/06/26 12:36:03.205	128.0	-2.05870235297708	4.07432274341055	
2015/06/26 12:36:03.207	128.0	-2.06485691905474	4.09278644164352	
2015/06/26 12:36:03.209	128.0	-2.06485691905474	4.09278644164352	
2015/06/26 12:36:03.211	128.0	-2.03716137170527	4.08047730948821	
2015/06/26 12:36:03.213	128.0	-2.03716137170527	4.08047730948821	
2015/06/26 12:36:03.215	128.0	-2.02792952258878	4.05585904517757	
2015/06/26 12:36:03.217	128.0	-2.02792952258878	4.05585904517757	
2015/06/26 12:36:03.219	128.0	-2.04331593778293	4.06509089429406	
2015/06/26 12:36:03.221	128.0	-2.04331593778293	4.06509089429406	
2015/06/26 12:36:03.223	128.0	-2.05870235297708	4.08047730948821	
2015/06/26 12:36:03.225	128.0	-2.05870235297708	4.08047730948821	
2015/06/26 12:36:03.227	128.0	-2.04331593778293	4.07432274341055	
2015/06/26 12:36:03.229	128.0	-2.04331593778293	4.07432274341055	
2015/06/26 12:36:03.231	128.0	-2.03408408866644	4.0589363282164	
2015/06/26 12:36:03.233	128.0	-2.03408408866644	4.0589363282164	
2015/06/26 12:36:03.235	128.0	-2.03716137170527	4.06816817733289	
2015/06/26 12:36:03.237	128.0	-2.03716137170527	4.06816817733289	
2015/06/26 12:36:03.239	128.0	-2.04331593778293	4.07740002644938	
2015/06/26 12:36:03.241	128.0	-2.04331593778293	4.07740002644938	
2015/06/26 12:36:03.243	128.0	-2.04331593778293	4.08970915860469	
2015/06/26 12:36:03.244	128.0	-2.04331593778293	4.08970915860469	
2015/06/26 12:36:03.246	128.0	-2.04331593778293	4.06816817733289	
2015/06/26 12:36:03.248	128.0	-2.04331593778293	4.06816817733289	
2015/06/26 12:36:03.250	128.0	-2.04331593778293	4.05278176213874	
2015/06/26 12:36:03.252	128.0	-2.04331593778293	4.05278176213874	
2015/06/26 12:36:03.254	128.0	-2.0402386547441	4.07124546037172	
2015/06/26 12:36:03.256	128.0	-2.0402386547441	4.07124546037172	
2015/06/26 12:36:03.258	128.0	-2.04639322082176	4.08355459252703	
2015/06/26 12:36:03.260	128.0	-2.04639322082176	4.08355459252703	
2015/06/26 12:36:03.262	128.0	-2.05562506993825	4.08355459252703	
2015/06/26 12:36:03.264	128.0	-2.05562506993825	4.08355459252703	
2015/06/26 12:36:03.266	128.0	-2.04947050386059	4.06509089429406	
2015/06/26 12:36:03.268	128.0	-2.04947050386059	4.06509089429406	
2015/06/26 12:36:03.270	128.0	-2.0402386547441	4.06816817733289	
2015/06/26 12:36:03.272	128.0	-2.0402386547441	4.06816817733289	
2015/06/26 12:36:03.274	128.0	-2.0402386547441	4.06816817733289	
2015/06/26 12:36:03.276	128.0	-2.0402386547441	4.06509089429406	
2015/06/26 12:36:03.278	128.0	-2.0402386547441	4.06509089429406	
2015/06/26 12:36:03.280	128.0	-2.04639322082176	4.06816817733289	
2015/06/26 12:36:03.282	128.0	-2.04639322082176	4.06816817733289	
2015/06/26 12:36:03.284	128.0	-2.04947050386059	4.07124546037172	
2015/06/26 12:36:03.285	128.0	-2.04947050386059	4.07124546037172	
2015/06/26 12:36:03.287	128.0	-2.04639322082176	4.07432274341055	
2015/06/26 12:36:03.289	128.0	-2.04639322082176	4.07432274341055	
2015/06/26 12:36:03.291	128.0	-2.04331593778293	4.06816817733289	
2015/06/26 12:36:03.293	128.0	-2.04331593778293	4.06816817733289	
2015/06/26 12:36:03.295	128.0	-2.04331593778293	4.07432274341055	
2015/06/26 12:36:03.297	128.0	-2.04331593778293	4.07432274341055	
2015/06/26 12:36:03.299	128.0	-2.04331593778293	4.08355459252703	
2015/06/26 12:36:03.301	128.0	-2.04331593778293	4.08355459252703	
2015/06/26 12:36:03.303	128.0	-2.04331593778293	4.08355459252703	
2015/06/26 12:36:03.305	128.0	-2.04331593778293	4.08355459252703	
2015/06/26 12:36:03.307	128.0	-2.06485691905474	4.06816817733289	
2015/06/26 12:36:03.309	128.0	-2.06485691905474	4.06816817733289	
2015/06/26 12:36:03.311	128.0	-2.07716605121006	4.07740002644938	
2015/06/26 12:36:03.313	128.0	-2.07716605121006	4.07740002644938	
2015/06/26 12:36:03.315	128.0	-2.0402386547441	4.07124546037172	
2015/06/26 12:36:03.317	128.0	-2.0402386547441	4.07124546037172	
2015/06/26 12:36:03.319	128.0	-2.02792952258878	4.0589363282164	
2015/06/26 12:36:03.321	128.0	-2.02792952258878	4.0589363282164	
2015/06/26 12:36:03.323	128.0	-2.03716137170527	4.08047730948821	
2015/06/26 12:36:03.325	128.0	-2.03716137170527	4.08047730948821	
2015/06/26 12:36:03.327	128.0	-2.04331593778293	4.07432274341055	
2015/06/26 12:36:03.328	128.0	-2.04331593778293	4.07432274341055	
2015/06/26 12:36:03.330	128.0	-2.04947050386059	4.06509089429406	
2015/06/26 12:36:03.332	128.0	-2.04947050386059	4.06509089429406	
2015/06/26 12:36:03.334	128.0	-2.04331593778293	4.06201361125523	
2015/06/26 12:36:03.336	128.0	-2.04331593778293	4.06201361125523	
2015/06/26 12:36:03.338	128.0	-2.03716137170527	4.07740002644938	
2015/06/26 12:36:03.340	128.0	-2.03716137170527	4.07740002644938	
2015/06/26 12:36:03.342	128.0	-2.0402386547441	4.09278644164352	
2015/06/26 12:36:03.344	128.0	-2.0402386547441	4.09278644164352	
2015/06/26 12:36:03.346	128.0	-2.04947050386059	4.07124546037172	
2015/06/26 12:36:03.348	128.0	-2.04947050386059	4.07124546037172	
2015/06/26 12:36:03.350	128.0	-2.04947050386059	4.07124546037172	
2015/06/26 12:36:03.352	128.0	-2.04947050386059	4.05278176213874	
2015/06/26 12:36:03.354	128.0	-2.04947050386059	4.05278176213874	
2015/06/26 12:36:03.356	128.0	-2.0402386547441	4.07124546037172	
2015/06/26 12:36:03.358	128.0	-2.0402386547441	4.07124546037172	
2015/06/26 12:36:03.360	128.0	-2.0402386547441	4.07432274341055	
2015/06/26 12:36:03.362	128.0	-2.0402386547441	4.07432274341055	
2015/06/26 12:36:03.364	128.0	-2.04331593778293	4.07740002644938	
2015/06/26 12:36:03.366	128.0	-2.04331593778293	4.07740002644938	
2015/06/26 12:36:03.368	128.0	-2.0402386547441	4.07432274341055	
2015/06/26 12:36:03.369	128.0	-2.0402386547441	4.07432274341055	
2015/06/26 12:36:03.371	128.0	-2.04331593778293	4.06816817733289	
2015/06/26 12:36:03.373	128.0	-2.04331593778293	4.06816817733289	
2015/06/26 12:36:03.375	128.0	-2.05254778689942	4.0589363282164	
2015/06/26 12:36:03.377	128.0	-2.05254778689942	4.0589363282164	
2015/06/26 12:36:03.379	128.0	-2.04947050386059	4.05278176213874	
2015/06/26 12:36:03.381	128.0	-2.04947050386059	4.05278176213874	
2015/06/26 12:36:03.383	128.0	-2.03716137170527	4.07432274341055	
2015/06/26 12:36:03.385	128.0	-2.03716137170527	4.07432274341055	
2015/06/26 12:36:03.387	128.0	-2.0402386547441	4.08970915860469	
2015/06/26 12:36:03.389	128.0	-2.0402386547441	4.08970915860469	
2015/06/26 12:36:03.391	128.0	-2.0402386547441	4.08047730948821	
2015/06/26 12:36:03.393	128.0	-2.0402386547441	4.08047730948821	
2015/06/26 12:36:03.395	128.0	-2.03716137170527	4.07432274341055	
2015/06/26 12:36:03.397	128.0	-2.03716137170527	4.07432274341055	
2015/06/26 12:36:03.399	128.0	-2.03408408866644	4.08047730948821	
2015/06/26 12:36:03.401	128.0	-2.03408408866644	4.08047730948821	
2015/06/26 12:36:03.403	128.0	-2.04639322082176	4.07124546037172	
2015/06/26 12:36:03.405	128.0	-2.04639322082176	4.07124546037172	
2015/06/26 12:36:03.407	128.0	-2.06177963601591	4.08355459252703	
2015/06/26 12:36:03.409	128.0	-2.06177963601591	4.08355459252703	
2015/06/26 12:36:03.410	128.0	-2.04639322082176	4.06509089429406	
2015/06/26 12:36:03.412	128.0	-2.04639322082176	4.06509089429406	
2015/06/26 12:36:03.414	128.0	-2.03408408866644	4.0589363282164	
2015/06/26 12:36:03.416	128.0	-2.03408408866644	4.0589363282164	
2015/06/26 12:36:03.418	128.0	-2.03716137170527	4.07124546037172	
2015/06/26 12:36:03.420	128.0	-2.03716137170527	4.07124546037172	
2015/06/26 12:36:03.422	128.0	-2.04639322082176	4.08355459252703	
2015/06/26 12:36:03.424	128.0	-2.04639322082176	4.08355459252703	
2015/06/26 12:36:03.426	128.0	-2.04639322082176	4.08355459252703	
2015/06/26 12:36:03.428	128.0	-2.04331593778293	4.09586372468235	
2015/06/26 12:36:03.430	128.0	-2.04331593778293	4.09586372468235	
2015/06/26 12:36:03.432	128.0	-2.04947050386059	4.07432274341055	
2015/06/26 12:36:03.434	128.0	-2.04947050386059	4.07432274341055	
2015/06/26 12:36:03.436	128.0	-2.04947050386059	4.04662719606108	
2015/06/26 12:36:03.438	128.0	-2.04947050386059	4.04662719606108	
2015/06/26 12:36:03.440	128.0	-2.02792952258878	4.06509089429406	
2015/06/26 12:36:03.442	128.0	-2.02792952258878	4.06509089429406	
2015/06/26 12:36:03.444	128.0	-2.02177495651112	4.06816817733289	
2015/06/26 12:36:03.446	128.0	-2.02177495651112	4.06816817733289	
2015/06/26 12:36:03.448	128.0	-2.03408408866644	4.07124546037172	
2015/06/26 12:36:03.450	128.0	-2.03408408866644	4.07124546037172	
2015/06/26 12:36:03.452	128.0	-2.03408408866644	4.06509089429406	
2015/06/26 12:36:03.453	128.0	-2.03408408866644	4.06509089429406	
2015/06/26 12:36:03.455	128.0	-2.03100680562761	4.06201361125523	
2015/06/26 12:36:03.457	128.0	-2.03100680562761	4.06201361125523	
2015/06/26 12:36:03.459	128.0	-2.03100680562761	4.07432274341055	
2015/06/26 12:36:03.461	128.0	-2.03100680562761	4.07432274341055	
2015/06/26 12:36:03.463	128.0	-2.03408408866644	4.07432274341055	
2015/06/26 12:36:03.465	128.0	-2.03408408866644	4.07432274341055	
2015/06/26 12:36:03.467	128.0	-2.03100680562761	4.07432274341055	
2015/06/26 12:36:03.469	128.0	-2.03100680562761	4.07432274341055	
2015/06/26 12:36:03.471	128.0	-2.03100680562761	4.06816817733289	
2015/06/26 12:36:03.473	128.0	-2.03100680562761	4.06816817733289	
2015/06/26 12:36:03.475	128.0	-2.03100680562761	4.08047730948821	
2015/06/26 12:36:03.477	128.0	-2.03100680562761	4.08047730948821	
2015/06/26 12:36:03.479	128.0	-2.03408408866644	4.08970915860469	
2015/06/26 12:36:03.481	128.0	-2.03408408866644	4.08970915860469	
2015/06/26 12:36:03.483	128.0	-2.04331593778293	4.06816817733289	
2015/06/26 12:36:03.485	128.0	-2.04331593778293	4.06816817733289	
2015/06/26 12:36:03.487	128.0	-2.05870235297708	4.06201361125523	
2015/06/26 12:36:03.489	128.0	-2.05870235297708	4.06201361125523	
2015/06/26 12:36:03.491	128.0	-2.03716137170527	4.06509089429406	
2015/06/26 12:36:03.493	128.0	-2.03716137170527	4.06509089429406	
2015/06/26 12:36:03.494	128.0	-2.01562039043346	4.06509089429406	
2015/06/26 12:36:03.496	128.0	-2.01562039043346	4.06509089429406	
2015/06/26 12:36:03.498	128.0	-2.02177495651112	4.07740002644938	
2015/06/26 12:36:03.500	128.0	-2.02177495651112	4.07740002644938	
2015/06/26 12:36:03.502	128.0	-2.02177495651112	4.07740002644938	
2015/06/26 12:36:03.504	128.0	-2.04639322082176	4.08355459252703	
2015/06/26 12:36:03.506	128.0	-2.04639322082176	4.08355459252703	
2015/06/26 12:36:03.508	128.0	-2.0402386547441	4.07740002644938	
2015/06/26 12:36:03.510	128.0	-2.0402386547441	4.07740002644938	
2015/06/26 12:36:03.512	128.0	-2.02177495651112	4.08355459252703	
2015/06/26 12:36:03.514	128.0	-2.02177495651112	4.08355459252703	
2015/06/26 12:36:03.516	128.0	-2.01869767347229	4.08047730948821	
2015/06/26 12:36:03.518	128.0	-2.01869767347229	4.08047730948821	
2015/06/26 12:36:03.520	128.0	-2.02792952258878	4.06509089429406	
2015/06/26 12:36:03.522	128.0	-2.02792952258878	4.06509089429406	
2015/06/26 12:36:03.524	128.0	-2.03408408866644	4.07124546037172	
2015/06/26 12:36:03.526	128.0	-2.03408408866644	4.07124546037172	
2015/06/26 12:36:03.528	128.0	-2.03100680562761	4.06816817733289	
2015/06/26 12:36:03.530	128.0	-2.03100680562761	4.06816817733289	
2015/06/26 12:36:03.532	128.0	-2.02177495651112	4.07740002644938	
2015/06/26 12:36:03.534	128.0	-2.02177495651112	4.07740002644938	
2015/06/26 12:36:03.535	128.0	-2.02792952258878	4.07124546037172	
2015/06/26 12:36:03.537	128.0	-2.02792952258878	4.07124546037172	
2015/06/26 12:36:03.539	128.0	-2.03716137170527	4.06201361125523	
2015/06/26 12:36:03.541	128.0	-2.03716137170527	4.06201361125523	
2015/06/26 12:36:03.543	128.0	-2.0402386547441	4.08355459252703	
2015/06/26 12:36:03.545	128.0	-2.0402386547441	4.08355459252703	
2015/06/26 12:36:03.547	128.0	-2.0402386547441	4.07432274341055	
2015/06/26 12:36:03.549	128.0	-2.0402386547441	4.07432274341055	
2015/06/26 12:36:03.551	128.0	-2.02177495651112	4.0589363282164	
2015/06/26 12:36:03.553	128.0	-2.02177495651112	4.0589363282164	
2015/06/26 12:36:03.555	128.0	-2.0094658243558	4.06816817733289	
2015/06/26 12:36:03.557	128.0	-2.0094658243558	4.06816817733289	
2015/06/26 12:36:03.559	128.0	-2.01562039043346	4.07124546037172	
2015/06/26 12:36:03.561	128.0	-2.01562039043346	4.07124546037172	
2015/06/26 12:36:03.563	128.0	-2.01869767347229	4.07432274341055	
2015/06/26 12:36:03.565	128.0	-2.01869767347229	4.07432274341055	
2015/06/26 12:36:03.567	128.0	-2.01562039043346	4.07124546037172	
2015/06/26 12:36:03.569	128.0	-2.01562039043346	4.07124546037172	
2015/06/26 12:36:03.571	128.0	-2.01869767347229	4.07740002644938	
2015/06/26 12:36:03.573	128.0	-2.01869767347229	4.07740002644938	
2015/06/26 12:36:03.575	128.0	-2.02485223954995	4.08047730948821	
2015/06/26 12:36:03.577	128.0	-2.02485223954995	4.08047730948821	
2015/06/26 12:36:03.578	128.0	-2.02792952258878	4.06816817733289	
2015/06/26 12:36:03.580	128.0	-2.02792952258878	4.06816817733289	
2015/06/26 12:36:03.582	128.0	-2.02792952258878	4.06816817733289	
2015/06/26 12:36:03.584	128.0	-2.04331593778293	4.06816817733289	
2015/06/26 12:36:03.586	128.0	-2.04331593778293	4.06816817733289	
2015/06/26 12:36:03.588	128.0	-2.04639322082176	4.07740002644938	
2015/06/26 12:36:03.590	128.0	-2.04639322082176	4.07740002644938	
2015/06/26 12:36:03.592	128.0	-2.02485223954995	4.07124546037172	
2015/06/26 12:36:03.594	128.0	-2.02485223954995	4.07124546037172	
2015/06/26 12:36:03.596	128.0	-2.01254310739463	4.07124546037172	
2015/06/26 12:36:03.598	128.0	-2.01254310739463	4.07124546037172	
2015/06/26 12:36:03.600	128.0	-2.02792952258878	4.06816817733289	
2015/06/26 12:36:03.602	128.0	-2.02792952258878	4.06816817733289	
2015/06/26 12:36:03.604	128.0	-2.04639322082176	4.08970915860469	
2015/06/26 12:36:03.606	128.0	-2.04639322082176	4.08970915860469	
2015/06/26 12:36:03.608	128.0	-2.05562506993825	4.07740002644938	
2015/06/26 12:36:03.610	128.0	-2.05562506993825	4.07740002644938	
2015/06/26 12:36:03.612	128.0	-2.04639322082176	4.05278176213874	
2015/06/26 12:36:03.614	128.0	-2.04639322082176	4.05278176213874	
2015/06/26 12:36:03.616	128.0	-2.02485223954995	4.08047730948821	
2015/06/26 12:36:03.618	128.0	-2.02485223954995	4.08047730948821	
2015/06/26 12:36:03.619	128.0	-2.00638854131698	4.08047730948821	
2015/06/26 12:36:03.621	128.0	-2.00638854131698	4.08047730948821	
2015/06/26 12:36:03.623	128.0	-2.00638854131698	4.05585904517757	
2015/06/26 12:36:03.625	128.0	-2.00638854131698	4.05585904517757	
2015/06/26 12:36:03.627	128.0	-2.01254310739463	4.06201361125523	
2015/06/26 12:36:03.629	128.0	-2.01254310739463	4.06201361125523	
2015/06/26 12:36:03.631	128.0	-2.01254310739463	4.06509089429406	
2015/06/26 12:36:03.633	128.0	-2.01254310739463	4.06509089429406	
2015/06/26 12:36:03.635	128.0	-2.02177495651112	4.06816817733289	
2015/06/26 12:36:03.637	128.0	-2.02177495651112	4.06816817733289	
2015/06/26 12:36:03.639	128.0	-2.03100680562761	4.07740002644938	
2015/06/26 12:36:03.641	128.0	-2.03100680562761	4.07740002644938	
2015/06/26 12:36:03.643	128.0	-2.0402386547441	4.08970915860469	
2015/06/26 12:36:03.645	128.0	-2.0402386547441	4.08970915860469	
2015/06/26 12:36:03.647	128.0	-2.03408408866644	4.07124546037172	
2015/06/26 12:36:03.649	128.0	-2.03408408866644	4.07124546037172	
2015/06/26 12:36:03.651	128.0	-2.02792952258878	4.0589363282164	
2015/06/26 12:36:03.653	128.0	-2.02792952258878	4.0589363282164	
2015/06/26 12:36:03.655	128.0	-2.02177495651112	4.06816817733289	
2015/06/26 12:36:03.657	128.0	-2.02177495651112	4.06816817733289	
2015/06/26 12:36:03.659	128.0	-2.02177495651112	4.06816817733289	
2015/06/26 12:36:03.660	128.0	-2.02485223954995	4.07124546037172	
2015/06/26 12:36:03.662	128.0	-2.02485223954995	4.07124546037172	
2015/06/26 12:36:03.664	128.0	-2.03408408866644	4.08047730948821	
2015/06/26 12:36:03.666	128.0	-2.03408408866644	4.08047730948821	
2015/06/26 12:36:03.668	128.0	-2.03716137170527	4.07124546037172	
2015/06/26 12:36:03.670	128.0	-2.03716137170527	4.07124546037172	
2015/06/26 12:36:03.672	128.0	-2.03408408866644	4.07124546037172	
2015/06/26 12:36:03.674	128.0	-2.03408408866644	4.07124546037172	
2015/06/26 12:36:03.676	128.0	-2.0402386547441	4.06509089429406	
2015/06/26 12:36:03.678	128.0	-2.0402386547441	4.06509089429406	
2015/06/26 12:36:03.680	128.0	-2.05562506993825	4.06816817733289	
2015/06/26 12:36:03.682	128.0	-2.05562506993825	4.06816817733289	
2015/06/26 12:36:03.684	128.0	-2.05870235297708	4.06509089429406	
2015/06/26 12:36:03.686	128.0	-2.05870235297708	4.06509089429406	
2015/06/26 12:36:03.688	128.0	-2.0402386547441	4.09586372468235	
2015/06/26 12:36:03.690	128.0	-2.0402386547441	4.09586372468235	
2015/06/26 12:36:03.692	128.0	-2.02485223954995	4.09278644164352	
2015/06/26 12:36:03.694	128.0	-2.02485223954995	4.09278644164352	
2015/06/26 12:36:03.696	128.0	-2.02792952258878	4.04662719606108	
2015/06/26 12:36:03.698	128.0	-2.02792952258878	4.04662719606108	
2015/06/26 12:36:03.700	128.0	-2.03716137170527	4.06201361125523	
2015/06/26 12:36:03.702	128.0	-2.03716137170527	4.06201361125523	
2015/06/26 12:36:03.703	128.0	-2.05870235297708	4.07124546037172	
2015/06/26 12:36:03.705	128.0	-2.05870235297708	4.07124546037172	
2015/06/26 12:36:03.707	128.0	-2.0710114851324	4.06816817733289	
2015/06/26 12:36:03.709	128.0	-2.0710114851324	4.06816817733289	
2015/06/26 12:36:03.711	128.0	-2.0402386547441	4.06509089429406	
2015/06/26 12:36:03.713	128.0	-2.0402386547441	4.06509089429406	
2015/06/26 12:36:03.715	128.0	-2.01869767347229	4.07124546037172	
2015/06/26 12:36:03.717	128.0	-2.01869767347229	4.07124546037172	
2015/06/26 12:36:03.719	128.0	-2.02485223954995	4.07740002644938	
2015/06/26 12:36:03.721	128.0	-2.02485223954995	4.07740002644938	
2015/06/26 12:36:03.723	128.0	-2.03408408866644	4.08047730948821	
2015/06/26 12:36:03.725	128.0	-2.03408408866644	4.08047730948821	
2015/06/26 12:36:03.727	128.0	-2.0402386547441	4.08663187556586	
2015/06/26 12:36:03.729	128.0	-2.0402386547441	4.08663187556586	
2015/06/26 12:36:03.731	128.0	-2.04947050386059	4.0589363282164	
2015/06/26 12:36:03.733	128.0	-2.04947050386059	4.0589363282164	
2015/06/26 12:36:03.735	128.0	-2.04947050386059	4.0589363282164	
2015/06/26 12:36:03.737	128.0	-2.03408408866644	4.06201361125523	
2015/06/26 12:36:03.739	128.0	-2.03408408866644	4.06201361125523	
2015/06/26 12:36:03.741	128.0	-2.03408408866644	4.08355459252703	
2015/06/26 12:36:03.743	128.0	-2.03408408866644	4.08355459252703	
2015/06/26 12:36:03.744	128.0	-2.04331593778293	4.07432274341055	
2015/06/26 12:36:03.746	128.0	-2.04331593778293	4.07432274341055	
2015/06/26 12:36:03.748	128.0	-2.04331593778293	4.06816817733289	
2015/06/26 12:36:03.750	128.0	-2.04331593778293	4.06816817733289	
2015/06/26 12:36:03.752	128.0	-2.04331593778293	4.06201361125523	
2015/06/26 12:36:03.754	128.0	-2.04331593778293	4.06201361125523	
2015/06/26 12:36:03.756	128.0	-2.04331593778293	4.0589363282164	
2015/06/26 12:36:03.758	128.0	-2.04331593778293	4.0589363282164	
2015/06/26 12:36:03.760	128.0	-2.0402386547441	4.07432274341055	
2015/06/26 12:36:03.762	128.0	-2.0402386547441	4.07432274341055	
2015/06/26 12:36:03.764	128.0	-2.04331593778293	4.08355459252703	
2015/06/26 12:36:03.766	128.0	-2.04331593778293	4.08355459252703	
2015/06/26 12:36:03.768	128.0	-2.04639322082176	4.07124546037172	
2015/06/26 12:36:03.770	128.0	-2.04639322082176	4.07124546037172	
2015/06/26 12:36:03.772	128.0	-2.04639322082176	4.06201361125523	
2015/06/26 12:36:03.774	128.0	-2.04639322082176	4.06201361125523	
2015/06/26 12:36:03.776	128.0	-2.04639322082176	4.0589363282164	
2015/06/26 12:36:03.778	128.0	-2.04639322082176	4.0589363282164	
2015/06/26 12:36:03.780	128.0	-2.04639322082176	4.07432274341055	
2015/06/26 12:36:03.782	128.0	-2.04639322082176	4.07432274341055	
2015/06/26 12:36:03.784	128.0	-2.05254778689942	4.08970915860469	
2015/06/26 12:36:03.785	128.0	-2.05254778689942	4.08970915860469	
2015/06/26 12:36:03.787	128.0	-2.05870235297708	4.07740002644938	
2015/06/26 12:36:03.789	128.0	-2.05870235297708	4.07740002644938	
2015/06/26 12:36:03.791	128.0	-2.05254778689942	4.04970447909991	
2015/06/26 12:36:03.793	128.0	-2.05254778689942	4.04970447909991	
2015/06/26 12:36:03.795	128.0	-2.04947050386059	4.06201361125523	
2015/06/26 12:36:03.797	128.0	-2.04947050386059	4.06201361125523	
2015/06/26 12:36:03.799	128.0	-2.05562506993825	4.06816817733289	
2015/06/26 12:36:03.801	128.0	-2.05562506993825	4.06816817733289	
2015/06/26 12:36:03.803	128.0	-2.04639322082176	4.06816817733289	
2015/06/26 12:36:03.805	128.0	-2.04639322082176	4.06816817733289	
2015/06/26 12:36:03.807	128.0	-2.04639322082176	4.06509089429406	
2015/06/26 12:36:03.809	128.0	-2.04639322082176	4.06509089429406	
2015/06/26 12:36:03.811	128.0	-2.06793420209357	4.06816817733289	
2015/06/26 12:36:03.813	128.0	-2.06793420209357	4.06816817733289	
2015/06/26 12:36:03.815	128.0	-2.06793420209357	4.06816817733289	
2015/06/26 12:36:03.817	128.0	-2.05562506993825	4.06509089429406	
2015/06/26 12:36:03.819	128.0	-2.05562506993825	4.06509089429406	
2015/06/26 12:36:03.821	128.0	-2.0402386547441	4.07432274341055	
2015/06/26 12:36:03.823	128.0	-2.0402386547441	4.07432274341055	
2015/06/26 12:36:03.825	128.0	-2.04331593778293	4.08663187556586	
2015/06/26 12:36:03.827	128.0	-2.04331593778293	4.08663187556586	
2015/06/26 12:36:03.828	128.0	-2.04639322082176	4.08355459252703	
2015/06/26 12:36:03.830	128.0	-2.04639322082176	4.08355459252703	
2015/06/26 12:36:03.832	128.0	-2.0402386547441	4.06201361125523	
2015/06/26 12:36:03.834	128.0	-2.0402386547441	4.06201361125523	
2015/06/26 12:36:03.836	128.0	-2.04639322082176	4.07124546037172	
2015/06/26 12:36:03.838	128.0	-2.04639322082176	4.07124546037172	
2015/06/26 12:36:03.840	128.0	-2.05562506993825	4.06816817733289	
2015/06/26 12:36:03.842	128.0	-2.05562506993825	4.06816817733289	
2015/06/26 12:36:03.844	128.0	-2.06177963601591	4.0589363282164	
2015/06/26 12:36:03.846	128.0	-2.06177963601591	4.0589363282164	
2015/06/26 12:36:03.848	128.0	-2.06485691905474	4.06816817733289	
2015/06/26 12:36:03.850	128.0	-2.06485691905474	4.06816817733289	
2015/06/26 12:36:03.852	128.0	-2.05254778689942	4.07432274341055	
2015/06/26 12:36:03.854	128.0	-2.05254778689942	4.07432274341055	
2015/06/26 12:36:03.856	128.0	-2.04331593778293	4.06816817733289	
2015/06/26 12:36:03.858	128.0	-2.04331593778293	4.06816817733289	
2015/06/26 12:36:03.860	128.0	-2.04947050386059	4.06509089429406	
2015/06/26 12:36:03.862	128.0	-2.04947050386059	4.06509089429406	
2015/06/26 12:36:03.864	128.0	-2.05254778689942	4.06816817733289	
2015/06/26 12:36:03.866	128.0	-2.05254778689942	4.06816817733289	
2015/06/26 12:36:03.868	128.0	-2.04947050386059	4.07124546037172	
2015/06/26 12:36:03.869	128.0	-2.04947050386059	4.07124546037172	
2015/06/26 12:36:03.871	128.0	-2.05870235297708	4.08663187556586	
2015/06/26 12:36:03.873	128.0	-2.05870235297708	4.08663187556586	
2015/06/26 12:36:03.875	128.0	-2.0710114851324	4.06509089429406	
2015/06/26 12:36:03.877	128.0	-2.0710114851324	4.06509089429406	
2015/06/26 12:36:03.879	128.0	-2.06177963601591	4.06816817733289	
2015/06/26 12:36:03.881	128.0	-2.06177963601591	4.06816817733289	
2015/06/26 12:36:03.883	128.0	-2.05870235297708	4.07432274341055	
2015/06/26 12:36:03.885	128.0	-2.05870235297708	4.07432274341055	
2015/06/26 12:36:03.887	128.0	-2.05254778689942	4.0589363282164	
2015/06/26 12:36:03.889	128.0	-2.05254778689942	4.0589363282164	
2015/06/26 12:36:03.891	128.0	-2.05254778689942	4.0589363282164	
2015/06/26 12:36:03.893	128.0	-2.03408408866644	4.06816817733289	
2015/06/26 12:36:03.895	128.0	-2.03408408866644	4.06816817733289	
2015/06/26 12:36:03.897	128.0	-2.03716137170527	4.06816817733289	
2015/06/26 12:36:03.899	128.0	-2.03716137170527	4.06816817733289	
2015/06/26 12:36:03.901	128.0	-2.04639322082176	4.08663187556586	
2015/06/26 12:36:03.903	128.0	-2.04639322082176	4.08663187556586	
2015/06/26 12:36:03.905	128.0	-2.04639322082176	4.07124546037172	
2015/06/26 12:36:03.907	128.0	-2.04639322082176	4.07124546037172	
2015/06/26 12:36:03.909	128.0	-2.05562506993825	4.05585904517757	
2015/06/26 12:36:03.910	128.0	-2.05562506993825	4.05585904517757	
2015/06/26 12:36:03.912	128.0	-2.05562506993825	4.0589363282164	
2015/06/26 12:36:03.914	128.0	-2.05562506993825	4.0589363282164	
2015/06/26 12:36:03.916	128.0	-2.04639322082176	4.06816817733289	
2015/06/26 12:36:03.918	128.0	-2.04639322082176	4.06816817733289	
2015/06/26 12:36:03.920	128.0	-2.04639322082176	4.07432274341055	
2015/06/26 12:36:03.922	128.0	-2.04639322082176	4.07432274341055	
2015/06/26 12:36:03.924	128.0	-2.06485691905474	4.07740002644938	
2015/06/26 12:36:03.926	128.0	-2.06485691905474	4.07740002644938	
2015/06/26 12:36:03.928	128.0	-2.08024333424889	4.07432274341055	
2015/06/26 12:36:03.930	128.0	-2.08024333424889	4.07432274341055	
2015/06/26 12:36:03.932	128.0	-2.05870235297708	4.07124546037172	
2015/06/26 12:36:03.934	128.0	-2.05870235297708	4.07124546037172	
2015/06/26 12:36:03.936	128.0	-2.0402386547441	4.07432274341055	
2015/06/26 12:36:03.938	128.0	-2.0402386547441	4.07432274341055	
2015/06/26 12:36:03.940	128.0	-2.05562506993825	4.07432274341055	
2015/06/26 12:36:03.942	128.0	-2.05562506993825	4.07432274341055	
2015/06/26 12:36:03.944	128.0	-2.06177963601591	4.06509089429406	
2015/06/26 12:36:03.946	128.0	-2.06177963601591	4.06509089429406	
2015/06/26 12:36:03.948	128.0	-2.05870235297708	4.07124546037172	
2015/06/26 12:36:03.950	128.0	-2.05870235297708	4.07124546037172	
2015/06/26 12:36:03.952	128.0	-2.04331593778293	4.07124546037172	
2015/06/26 12:36:03.953	128.0	-2.04331593778293	4.07124546037172	
2015/06/26 12:36:03.955	128.0	-2.04331593778293	4.08047730948821	
2015/06/26 12:36:03.957	128.0	-2.04331593778293	4.08047730948821	
2015/06/26 12:36:03.959	128.0	-2.06793420209357	4.08355459252703	
2015/06/26 12:36:03.961	128.0	-2.06793420209357	4.08355459252703	
2015/06/26 12:36:03.963	128.0	-2.06485691905474	4.08047730948821	
2015/06/26 12:36:03.965	128.0	-2.06485691905474	4.08047730948821	
2015/06/26 12:36:03.967	128.0	-2.06485691905474	4.08047730948821	
2015/06/26 12:36:03.969	128.0	-2.04947050386059	4.05585904517757	
2015/06/26 12:36:03.971	128.0	-2.04947050386059	4.05585904517757	
2015/06/26 12:36:03.973	128.0	-2.04331593778293	4.05585904517757	
2015/06/26 12:36:03.975	128.0	-2.04331593778293	4.05585904517757	
2015/06/26 12:36:03.977	128.0	-2.03716137170527	4.06509089429406	
2015/06/26 12:36:03.979	128.0	-2.03716137170527	4.06509089429406	
2015/06/26 12:36:03.981	128.0	-2.03716137170527	4.07432274341055	
2015/06/26 12:36:03.983	128.0	-2.03716137170527	4.07432274341055	
2015/06/26 12:36:03.985	128.0	-2.05254778689942	4.08047730948821	
2015/06/26 12:36:03.987	128.0	-2.05254778689942	4.08047730948821	
2015/06/26 12:36:03.989	128.0	-2.06485691905474	4.05585904517757	
2015/06/26 12:36:03.991	128.0	-2.06485691905474	4.05585904517757	
2015/06/26 12:36:03.993	128.0	-2.06485691905474	4.0589363282164	
2015/06/26 12:36:03.994	128.0	-2.06485691905474	4.0589363282164	
2015/06/26 12:36:03.996	128.0	-2.05562506993825	4.06509089429406	
2015/06/26 12:36:03.998	128.0	-2.05562506993825	4.06509089429406	
2015/06/26 12:36:04.000	128.0	-2.05562506993825	4.07432274341055	
2015/06/26 12:36:04.002	128.0	-2.05562506993825	4.07432274341055	
2015/06/26 12:36:04.004	128.0	-2.04639322082176	4.07740002644938	
2015/06/26 12:36:04.006	128.0	-2.04639322082176	4.07740002644938	
2015/06/26 12:36:04.008	128.0	-2.0402386547441	4.07432274341055	
2015/06/26 12:36:04.010	128.0	-2.0402386547441	4.07432274341055	
2015/06/26 12:36:04.012	128.0	-2.06177963601591	4.0589363282164	
2015/06/26 12:36:04.014	128.0	-2.06177963601591	4.0589363282164	
2015/06/26 12:36:04.016	128.0	-2.07408876817123	4.06201361125523	
2015/06/26 12:36:04.018	128.0	-2.07408876817123	4.06201361125523	
2015/06/26 12:36:04.020	128.0	-2.04947050386059	4.06201361125523	
2015/06/26 12:36:04.022	128.0	-2.04947050386059	4.06201361125523	
2015/06/26 12:36:04.024	128.0	-2.04947050386059	4.06509089429406	
2015/06/26 12:36:04.026	128.0	-2.04947050386059	4.06509089429406	
2015/06/26 12:36:04.028	128.0	-2.06177963601591	4.07740002644938	
2015/06/26 12:36:04.030	128.0	-2.06177963601591	4.07740002644938	
2015/06/26 12:36:04.032	128.0	-2.05562506993825	4.07740002644938	
2015/06/26 12:36:04.034	128.0	-2.05562506993825	4.07740002644938	
2015/06/26 12:36:04.035	128.0	-2.06177963601591	4.06816817733289	
2015/06/26 12:36:04.037	128.0	-2.06177963601591	4.06816817733289	
2015/06/26 12:36:04.039	128.0	-2.0710114851324	4.07124546037172	
2015/06/26 12:36:04.041	128.0	-2.0710114851324	4.07124546037172	
2015/06/26 12:36:04.043	128.0	-2.05254778689942	4.07740002644938	
2015/06/26 12:36:04.045	128.0	-2.05254778689942	4.07740002644938	
2015/06/26 12:36:04.047	128.0	-2.05254778689942	4.07740002644938	
2015/06/26 12:36:04.049	128.0	-2.03716137170527	4.07740002644938	
2015/06/26 12:36:04.051	128.0	-2.03716137170527	4.07740002644938	
2015/06/26 12:36:04.053	128.0	-2.03716137170527	4.06201361125523	
2015/06/26 12:36:04.055	128.0	-2.03716137170527	4.06201361125523	
2015/06/26 12:36:04.057	128.0	-2.04639322082176	4.0589363282164	
2015/06/26 12:36:04.059	128.0	-2.04639322082176	4.0589363282164	
2015/06/26 12:36:04.061	128.0	-2.07408876817123	4.06201361125523	
2015/06/26 12:36:04.063	128.0	-2.07408876817123	4.06201361125523	
2015/06/26 12:36:04.065	128.0	-2.0710114851324	4.07432274341055	
2015/06/26 12:36:04.067	128.0	-2.0710114851324	4.07432274341055	
2015/06/26 12:36:04.069	128.0	-2.05562506993825	4.10509557379884	
2015/06/26 12:36:04.071	128.0	-2.05562506993825	4.10509557379884	
2015/06/26 12:36:04.073	128.0	-2.04639322082176	4.07740002644938	
2015/06/26 12:36:04.075	128.0	-2.04639322082176	4.07740002644938	
2015/06/26 12:36:04.077	128.0	-2.04947050386059	4.04047262998342	
2015/06/26 12:36:04.078	128.0	-2.04947050386059	4.04047262998342	
2015/06/26 12:36:04.080	128.0	-2.04947050386059	4.03739534694459	
2015/06/26 12:36:04.082	128.0	-2.04947050386059	4.03739534694459	
2015/06/26 12:36:04.084	128.0	-2.05562506993825	4.06509089429406	
2015/06/26 12:36:04.086	128.0	-2.05562506993825	4.06509089429406	
2015/06/26 12:36:04.088	128.0	-2.07716605121006	4.08663187556586	
2015/06/26 12:36:04.090	128.0	-2.07716605121006	4.08663187556586	
2015/06/26 12:36:04.092	128.0	-2.08024333424889	4.06816817733289	
2015/06/26 12:36:04.094	128.0	-2.08024333424889	4.06816817733289	
2015/06/26 12:36:04.096	128.0	-2.06793420209357	4.08047730948821	
2015/06/26 12:36:04.098	128.0	-2.06793420209357	4.08047730948821	
2015/06/26 12:36:04.100	128.0	-2.0710114851324	4.0589363282164	
2015/06/26 12:36:04.102	128.0	-2.0710114851324	4.0589363282164	
2015/06/26 12:36:04.104	128.0	-2.08332061728772	4.05585904517757	
2015/06/26 12:36:04.106	128.0	-2.08332061728772	4.05585904517757	
2015/06/26 12:36:04.108	128.0	-2.04947050386059	4.06201361125523	
2015/06/26 12:36:04.110	128.0	-2.04947050386059	4.06201361125523	
2015/06/26 12:36:04.112	128.0	-2.03100680562761	4.05585904517757	
2015/06/26 12:36:04.114	128.0	-2.03100680562761	4.05585904517757	
2015/06/26 12:36:04.116	128.0	-2.04331593778293	4.0589363282164	
2015/06/26 12:36:04.118	128.0	-2.04331593778293	4.0589363282164	
2015/06/26 12:36:04.119	128.0	-2.04639322082176	4.07124546037172	
2015/06/26 12:36:04.121	128.0	-2.04639322082176	4.07124546037172	
2015/06/26 12:36:04.123	128.0	-2.04639322082176	4.07124546037172	
2015/06/26 12:36:04.125	128.0	-2.04947050386059	4.07740002644938	
2015/06/26 12:36:04.127	128.0	-2.04947050386059	4.07740002644938	
2015/06/26 12:36:04.129	128.0	-2.05870235297708	4.07124546037172	
2015/06/26 12:36:04.131	128.0	-2.05870235297708	4.07124546037172	
2015/06/26 12:36:04.133	128.0	-2.0710114851324	4.06816817733289	
2015/06/26 12:36:04.135	128.0	-2.0710114851324	4.06816817733289	
2015/06/26 12:36:04.137	128.0	-2.05870235297708	4.06509089429406	
2015/06/26 12:36:04.139	128.0	-2.05870235297708	4.06509089429406	
2015/06/26 12:36:04.141	128.0	-2.05562506993825	4.07124546037172	
2015/06/26 12:36:04.143	128.0	-2.05562506993825	4.07124546037172	
2015/06/26 12:36:04.145	128.0	-2.04331593778293	4.07432274341055	
2015/06/26 12:36:04.147	128.0	-2.04331593778293	4.07432274341055	
2015/06/26 12:36:04.149	128.0	-2.03716137170527	4.07740002644938	
2015/06/26 12:36:04.151	128.0	-2.03716137170527	4.07740002644938	
2015/06/26 12:36:04.153	128.0	-2.05254778689942	4.0589363282164	
2015/06/26 12:36:04.155	128.0	-2.05254778689942	4.0589363282164	
2015/06/26 12:36:04.157	128.0	-2.06485691905474	4.07432274341055	
2015/06/26 12:36:04.159	128.0	-2.06485691905474	4.07432274341055	
2015/06/26 12:36:04.160	128.0	-2.05562506993825	4.06201361125523	
2015/06/26 12:36:04.162	128.0	-2.05562506993825	4.06201361125523	
2015/06/26 12:36:04.164	128.0	-2.04331593778293	4.07124546037172	
2015/06/26 12:36:04.166	128.0	-2.04331593778293	4.07124546037172	
2015/06/26 12:36:04.168	128.0	-2.04331593778293	4.09278644164352	
2015/06/26 12:36:04.170	128.0	-2.04331593778293	4.09278644164352	
2015/06/26 12:36:04.172	128.0	-2.03408408866644	4.08663187556586	
2015/06/26 12:36:04.174	128.0	-2.03408408866644	4.08663187556586	
2015/06/26 12:36:04.176	128.0	-2.03100680562761	4.1112501398765	
2015/06/26 12:36:04.178	128.0	-2.03100680562761	4.1112501398765	
2015/06/26 12:36:04.180	128.0	-2.04639322082176	4.08663187556586	
2015/06/26 12:36:04.182	128.0	-2.04639322082176	4.08663187556586	
2015/06/26 12:36:04.184	128.0	-2.07408876817123	4.01585436567278	
2015/06/26 12:36:04.186	128.0	-2.07408876817123	4.01585436567278	
2015/06/26 12:36:04.188	128.0	-2.08024333424889	4.03431806390576	
2015/06/26 12:36:04.190	128.0	-2.08024333424889	4.03431806390576	
2015/06/26 12:36:04.192	128.0	-2.04331593778293	4.0589363282164	
2015/06/26 12:36:04.194	128.0	-2.04331593778293	4.0589363282164	
2015/06/26 12:36:04.196	128.0	-2.02792952258878	4.07740002644938	
2015/06/26 12:36:04.198	128.0	-2.02792952258878	4.07740002644938	
2015/06/26 12:36:04.200	128.0	-2.02792952258878	4.07740002644938	
2015/06/26 12:36:04.202	128.0	-2.05254778689942	4.07124546037172	
2015/06/26 12:36:04.203	128.0	-2.05254778689942	4.07124546037172	
2015/06/26 12:36:04.205	128.0	-2.06485691905474	4.06201361125523	
2015/06/26 12:36:04.207	128.0	-2.06485691905474	4.06201361125523	
2015/06/26 12:36:04.209	128.0	-2.04947050386059	4.05585904517757	
2015/06/26 12:36:04.211	128.0	-2.04947050386059	4.05585904517757	
2015/06/26 12:36:04.213	128.0	-2.04947050386059	4.05585904517757	
2015/06/26 12:36:04.215	128.0	-2.04947050386059	4.05585904517757	
